-0.713589211271136,0.20154663910028053,-0.9642184726584967,-1.750542980527562,1.8859220424908436,-2.011289953751291,-1.535540056528201,-0.9928305753011348
0.22133970099589473,-1.2473442052229062,0.6509265967988273,1.8906383249982455,-1.697868945306982,-0.12549145517413704,1.5329950778819903,-0.31125434210594
0.24986461147661268,-0.29398418529453463,0.7131869501655553,-1.5902777236248893,-1.5233857059698952,-0.6841916039496059,0.6523054814929397,0.6744211797362165
1.439495386775019,-0.12405346340942465,0.8659183312797915,-1.000910062139103,-0.3064810027410335,0.19692107366996944,1.3621126134387973,-0.08012773520107953
1.7128798580214402,0.23367864162043148,-0.9096335957673791,1.103278935667316,-0.14152582643672706,-1.6647553681638279,-0.44585580492810545,0.10554059811620081
-0.4799876313620833,-1.384315270144598,-1.26572012374483,-0.921411204279263,-1.9432092544934159,0.23356673405453574,0.5775197173081397,-0.9734316152742918
-1.3241628987251737,0.5866257184564231,-0.829222008470813,0.4607770233207486,1.1463957243074356,0.5991962300927678,-0.40998941659482385,-0.8036517719176474
0.40529609703462144,-0.11487085583242536,0.36640643563956793,-2.011321147656522,-1.588306410935487,-1.1956785919990787,0.7522600034305224,0.19553947688480347
-0.2707010305451658,-0.5232485506925183,-0.5045606069530438,-1.391729641933979,-0.17724354820199517,0.7353449265904247,0.46763827912733036,0.5398585871877573
-0.23005476601473082,0.5318518625798999,-0.36118162858716757,0.9666629694483053,0.9040584241696137,-0.04610290234184476,1.5429279376914933,0.2474647707619391
-0.6439888271606415,-0.6608513499656907,0.10796453889893672,-0.3006888160684214,-0.9233660058637484,0.8786228715577666,0.9860842066837568,0.5436087666482563
0.12085855068826905,-1.4683274062937222,-2.7398931333660546,-1.1282221079861903,-0.8856116043847857,0.6651964836066311,0.4048373641577513,-0.162559270904775
0.09150933689594244,-0.3146584002814588,-1.3064291055660822,0.6869477287364599,1.0291241854426616,-0.6926787469689014,-0.8494631169310226,-0.1333491971399963
0.5283089027319839,0.6022861308177554,0.3589054699919626,-2.749481169151632,0.5013521965804018,-0.10547421138592049,0.5201498532563653,0.4190886204151799
-0.8530932861158823,2.0579146131949306,0.8458260099201718,0.1444522481054319,-0.9886023140482495,0.8693754790337042,-0.21025435171789006,1.3832368108315032
1.2315416367573717,1.7448910324866282,1.5980568908198354,-0.9605634742545291,0.3511298371090714,1.2513666657075981,-1.027455867874092,-0.305564232263552
-0.8170882562170074,-0.9336655948957162,0.2697246185086387,-1.5076936102948812,1.1403876319058714,0.6598875050225418,0.18113949282301248,-0.37989215223109035
-1.0856762174035957,0.7675394854078981,-0.9742702632950733,0.4158108461505972,1.1085473954497607,0.14458385175176625,0.07866794963073545,-0.2509651277270384
0.6136923695312831,0.5208118724215234,-0.7926496616333115,-0.5841356746591572,0.9383872586657205,-0.6881251812641352,1.611877249638695,-1.1651076996239456
0.2432508613442142,0.08153837243450496,-0.5350886379250814,1.3193590628200473,-0.9577356254082628,0.42740284598916134,-1.3468527879120609,-0.7973471463140633
0.5662727381929792,1.5942230150361,-1.9179269280243745,-0.4619850144039989,0.2014056289878342,-0.09480379044418993,-2.6261433879898086,1.7108344348765692
1.1319717199647972,0.786509932998282,-0.7185383504572381,0.14459150202931215,-1.1398930350583065,0.00024809542945180776,1.012544268739551,1.1346273924853527
0.8182216798222333,0.4694749510132946,0.00040764295707883816,1.3396351497620353,0.9881546302770947,0.8641679671279765,-0.7093408128045289,-0.19874363271633372
-1.286430634116777,-0.9156223940395942,-0.9441134818258091,-1.4618771897262723,1.0640755214010724,-0.1635913219362022,0.6639670065335036,2.121152203580498
1.3628443000068724,0.7845303983658709,0.3002172166985545,1.0773267168824991,0.38379247042445486,0.8362679307197324,0.8804226135724353,-0.13104128538041268
-1.1642756581874782,0.3951961363456073,-1.027907700097743,-0.995770759894071,-1.3076584579879171,-1.3071272545856194,1.638400193155583,-0.43442519215878367
0.08430318813968389,-0.06605396946796115,-0.4776650143305541,-2.8028128167784665,0.05593707949332431,0.36155840269767836,-1.0133424334144192,0.3333952855477391
-0.7539602705825086,-0.7936521118788602,-0.3978716376846884,0.670934050807693,0.611218165203588,2.6127837256128648,0.2397906334652794,0.1481079356572265
0.7242753772814527,1.82757859039292,0.27571823669608386,0.5480754528809415,0.16919360953685425,-1.4005289881316871,-0.3359095108899623,0.0989734175051328
0.5145652568745196,-0.006005567866308546,-0.5251936911914661,-0.0373996938080279,-1.4055656852779008,0.48649495883051225,-1.8943851725580965,0.9759009637630688
0.29520051021525645,-0.33487348506397857,-0.8185655529510539,-0.30804369269021936,-0.873865492132259,1.0062853852142661,-0.9855294557390362,0.1239628770541192
0.9702822824561717,0.5730479341039475,0.22225286828746432,-0.1826136735826149,0.4068074493366735,1.2094682837875421,0.5799324052625463,-1.6290294674577355
1.0681336328908109,0.14433111628495948,0.2685630518348149,-0.6794213016604516,-0.27853229765421755,-0.4094572301322382,-0.2176591996988987,-0.16263498833924633
0.8849803048092834,-0.26734513527799547,0.3739872369334837,0.14646161904251154,0.9417868280525779,1.3136614178834063,1.7516315553341528,0.5179112293219289
0.8143641113106438,0.9463338011172753,0.016509089074731607,2.2374007425491786,-1.6672313885417225,0.4393406099516231,0.1491102785452317,-0.09361331198393685
-0.6334251616695624,-1.0514824899323048,0.20484208234651283,-1.7075813198871492,-0.8874189058739159,0.03298522783652844,-0.5496809325207236,-0.8043863819790649
2.3845306806545854,1.572937914101712,-0.5878003147876785,1.1556288230168537,1.880857748399441,-0.20177206238987805,0.5938097623621135,-0.6653474368454749
-0.4942469994789669,-0.21325061535775527,-2.696097418431778,-0.45034673219789634,-1.6518745027426844,-0.31893395243455974,0.05779370305574202,-1.915954751108738
0.31254572528525404,0.6599716335021375,-0.7022046798868804,1.0769442420404818,-0.5790054661113688,0.2779669645772233,-0.9241856230973955,1.239875607951678
0.4772842268985328,0.3837365317943872,1.0209516712073268,0.6084298049319908,1.2228793396817466,0.05514887420820216,-0.8604822663034121,-0.8126329077934159
0.31634759354567793,0.39256921779541526,-0.5576495068466744,-0.16562814150775776,1.1842794106754808,-0.8648724808479727,-0.05288764565911488,-0.8569776716837714
0.9729006696720747,0.4809822922168652,0.8860755197475431,0.05380368663864991,1.2410115219980282,0.6386253740644137,0.41585247293156985,0.3549585369004126
0.717510248780485,-2.1138542855299,-0.969794981420686,-0.48504368531447445,0.5983941035109356,-0.46603388130642437,-1.2420264157004979,-0.5477145324280306
1.952202711676431,-1.7720750152413114,0.2906015003222616,-0.6261431036419697,-0.18286418911077568,-1.0701970043827813,-0.8119360835396492,1.2313486246675784
0.27438930406363515,1.1028160830322822,0.24967975952317426,0.7693059372196882,0.2568258870388006,0.2109349158110329,0.7196237528630891,0.14547558617320935
-0.5623885014695063,0.0664513279802881,-0.062323029531838235,1.0522613134626837,-0.695145781045576,-1.2758571296740928,-1.044453950644977,0.4109815311905986
-0.26553754196816964,1.7531318263452955,-0.6230137942162177,0.849446339421978,1.0172374767347319,-0.22341836047410607,2.5772181833373193,-0.8963147608999362
-1.1337950860463737,-0.3208142344472242,-0.34237466667655275,0.7159169477013831,-1.1730858039749033,-0.22656907062660617,-0.18702270380733613,1.3434655551457866
-1.0128410932180008,0.8428998607196672,-1.6362923017046347,0.6847747416215182,-1.9650554025080469,0.30243030086930867,-1.4920205551271912,0.15880211600642294
-0.16809825392680283,-0.560358840713486,0.6294044725533544,-0.9418253510128892,-0.6177563804944093,-0.9707646022186378,-0.5645421501094817,0.8626460380744277
-0.889354598699502,0.1639938147112025,0.2541117821095122,1.6914701680331075,-0.5777545481342068,0.9799413681896251,-2.700602401958164,0.3900147636556498
0.5952585038296823,0.2682982679697032,-1.4672102694249145,1.4215573308761418,-0.38882014622072225,-1.5564854736569125,-1.442492148016742,-0.42301048251730644
-0.15537863488714468,0.4988718699703342,-0.6355528152993459,-0.0006314210862698018,0.6328593466829372,0.7965118412189887,-1.5760983980265149,-0.6511603088331218
0.14021041417131017,1.7244869513010184,-0.0033509116892343283,0.4435711230005937,-1.443655411612544,-1.8412723163641203,1.0376671016517418,-0.2705270593064185
-0.4747942642756961,-0.5071524016913183,2.0480882015035315,-0.36754193107460165,-0.29874751267060395,1.1042465558354897,0.8027778678887486,-0.9132241527204542
0.29473247088254184,1.180689471894301,1.6017178786062012,-0.2931809381607829,0.3120011650898498,0.2275409793713182,1.0302962936066762,1.2769805565380339
0.7877288306722119,0.5643573521937073,-1.9575935621828648,1.459587895999561,-0.22431541078840525,0.35328564822572317,0.07229141008656925,-0.48260979303711316
0.7664556323753645,0.7185517522615152,1.2384814757297273,0.8700814858699771,1.2375182239478537,0.08491801246259001,-0.5928597757149339,-0.6540743811862733
-0.358536199041403,0.6785498399524587,2.0172768845344464,1.3532270121533476,1.6730766943668403,-1.107363887050744,0.2536402566526416,-0.39994852486655486
0.027581415407987454,-1.369638810528529,0.8617012527573849,-0.6157646428448212,0.7005488560524368,-1.8282203270629562,0.25813261664103665,0.8716176772766561
-0.319794477791978,1.2305474258062634,-0.5114280088204607,1.1555095598914014,-0.4176093814364132,0.40651447293245413,0.1400446578470657,1.1496893405498263
0.7356270137010756,1.8018361616314902,-0.6682544652996314,-0.7259249790872057,1.274232325410138,-1.4354474300051159,-0.21521737848982966,-1.6681448828378327
-0.1017337911563613,-0.5695281054926109,1.5173020037218727,2.3250420685127415,0.6737411530308459,0.2829007031276437,-0.0174569276053541,0.044928894907065337
0.6352540233260293,0.7933035110659078,0.9010524914479431,-2.4673368555317277,0.25500787410665704,-1.1708530652653781,-1.7915672789918395,0.4667168240802786
0.9601710619419247,0.10779642690413634,0.9695293324902987,0.4880945329324361,0.3831614002736036,-0.13082977808880702,0.6282685572498513,-0.9263490496870785
-2.217164578316503,0.04651618388107326,0.25203320455768186,-1.040023008761893,0.5660887936231452,-1.1726865230372374,1.4856543790844081,0.787671490130481
-0.5375245431154004,-0.36167249938111456,0.6342796402358428,0.2337052053303526,0.10043599012533826,-0.9401162245072927,-0.03728924253624379,0.05944029387636267
0.7738825728519215,1.27090633601494,-1.0321945146403735,-0.984572361100688,0.8335173112078317,0.28040237179371724,0.1853075706986441,-1.1875723319723914
0.7017871128506324,-0.03162723427623663,0.3990206119156347,-0.39419605184712486,-0.25086523220858814,-0.7952646973639921,-2.5482481579723744,-0.5980378001859142
-0.3108719065474801,-0.5917456203587701,-0.3395140888731949,-0.6510893664750281,1.1283475628678696,-1.8065560372112934,0.9128412704368197,1.1983459350480186
1.0519832360987285,0.026745630365004217,-0.2784470415300604,-1.3246526941142138,0.27666557292713206,-0.8775071599903163,-1.5611979077357685,0.5829290608607661
0.3075557781664717,0.014139281753656724,-0.951586536979313,0.02435866378893417,0.9499173011922531,0.0008475966662555148,-1.4285416528483121,0.0383579679696521
-0.8943263973524471,-0.6375880026361189,0.8113134515238817,0.7083588794082045,-0.911945108389741,1.7372088316731709,1.6107453569970538,-1.4002847616450547
1.879177171413326,1.1601855225855644,-0.14012000836870975,1.2144684772851568,0.39932160919183324,-0.6619479609018672,0.2442253030126734,-1.3668360699134765
0.43762789901136673,-0.013474830082258806,0.6550959847729854,-0.35213627541203385,0.8599682141863146,-0.7088646671270021,1.3596109774792264,-0.8939752706979629
-1.8091559392879137,0.48067535134005834,0.5700402075464776,-1.5072349881177314,0.2618097967412859,-0.1868509241614608,-1.053699846738876,0.8307553689086723
-0.6736339813128251,0.5748931834326106,-0.10126850399967544,1.0621046472903906,-0.5534510034713055,-0.7456288956807863,-0.3170308633428517,-1.4087067837208942
0.9285176472121957,0.9081306490919621,-0.4412686685731747,0.37826724302801235,0.45788443939018414,1.185467598640956,-1.7606431813865855,1.0466298312340336
1.494522376659011,-0.5560094374579686,0.43984576008652276,-1.6771181809422002,0.45796496871743053,-0.4088992869176667,-1.076369353959958,-0.8627457255801053
-0.28169282745807545,0.5141968862196457,0.2742139635715906,0.20178860400150408,1.1680490827750278,-0.9320458554680253,0.792287968286102,-0.9039787747791601
0.9628250328767842,1.8815770531562714,-0.6692523499946166,-0.006701723895789365,-0.5021582982007537,-1.518005747619966,-0.5941891281838276,-0.6967576360588655
1.314045044583302,0.4502040515774545,-0.7281479216454086,0.44091056011612256,-1.266060665993964,0.4497451808557775,-0.7971044564826142,0.7503345066465287
-0.8599837518896907,0.520536906431831,1.7425894880003325,-0.5094489762135447,0.02994022526209211,0.2688020013968736,0.38703287713928963,-0.6355131109765385
-0.9398116059875071,-1.2536314100360233,1.603120437074793,-0.5579454174787436,-0.17636597786071878,0.5217643518472043,0.716050855358823,-0.2771157028688667
1.0593123331979997,-1.4281073039363992,-0.7975622152433771,0.6037807523973261,0.8634507135265607,1.2900643930821507,-0.5731290771888953,-0.33053086660363007
1.2892252213487008,-2.534513409076009,2.09103428559556,1.0855865958595206,-0.024917103745368367,-0.6680793364278278,0.3773852333951608,-0.8303688626404879
0.5044407168652554,0.008355214645889935,1.0696924046222658,1.1764415881741421,0.16954504313590762,1.741026936690152,0.060937513414755055,-0.6821401629819399
1.088010885319732,1.211437592626749,-0.49289419644338095,1.2887333200419933,0.9114655849052438,-0.24388569854426792,-1.895078569612932,1.0354852825528051
1.1739797366485663,-2.755724593537469,0.2833031449383922,-0.558537742642514,1.6698781424824614,-0.07595082038178322,0.18631703739114266,0.38017445588045096
-0.3981537421443669,-0.3910625633839633,-0.5071317955849678,0.744866329501297,-0.27507278878364505,0.8069513141615953,-0.5663419151076798,-0.03908659560063807
0.0602262395365675,1.2186121264346257,0.7247689553653424,-0.5674933721313292,-0.18040303154390264,-1.7445250134310486,1.69786023975501,-0.8592547319581298
0.9349023238640451,0.6402128644338849,-0.2811875245470571,-0.6921082432841745,0.07843032766424418,0.5030606760254013,-1.5601380183243108,-2.0911543900930547
2.2313455731768412,-0.8014344404239354,-0.6684674538860343,0.13275097070562186,0.6556478580856026,-1.0523359820807934,-0.024903308541267908,0.9236923636365053
-0.24272395795731597,-0.5183516843726323,-0.12546706610394368,-0.36502051130467483,-0.664170053952968,-0.04830631636754647,0.27120817421191373,-0.05068050624814164
-1.2037709408371005,0.18941998910312094,-1.2031730211251377,-1.9786379571830468,-0.012275735008053753,0.14479531923368336,-0.8056334840182946,-0.1303268031065571
-0.6052574418447529,1.3259871719716905,1.2110656475542225,-0.27536292555555525,0.78512574342454,-0.06877452997153592,-0.3761063768638243,-1.1245969066341244
-0.23749041507815372,-0.5625398792270215,1.4946291409431913,-0.815633654260731,-1.279835856477309,-0.23505944421511277,-0.06673317390838333,2.2012004125794045
0.48751794453610253,1.3782407111740556,0.13654514657623773,-0.2988532458559325,0.6045933883227932,1.204789209589464,1.0009394277061723,-0.2612096283492548
1.8444113160984918,-0.6392239384349035,-0.39688958313423445,-0.20665902343946793,-0.23668822198546693,0.5035644931274865,-1.3485621774798526,0.4356886385565925
-0.6351754307279273,-1.184851800061619,-0.5163476639606481,-0.6117175392628466,-1.0523067475555736,-0.19954545980023297,-1.6312269056677244,0.09374298127786873
-0.4515399518020268,0.2734886097128982,0.7057353272242015,-0.6515134525186728,0.5423534507692966,0.8469002637711702,-0.43908602291366156,-0.6134441249976698
0.3992006054887392,-0.8448663835397953,0.19130791946797412,0.6076788500402734,0.8071145263108142,-1.534660112405154,-0.835082501488421,-0.2158426721866301
-0.4234709047333404,-0.35402984887265176,0.3015399140799882,-0.1764730800936858,-1.28223135525562,-0.5488400385520072,0.15654569339575125,-1.2267113488599402
-1.5131865891819887,0.20415333257867216,0.5282838658456869,1.310373394787989,-0.7068655296071202,0.28702188038090676,-0.502025041739938,-1.4278292024189005
1.6509029283335999,1.5785218541169155,-1.5553669198490938,-0.6405626872405115,0.7528484233988398,-0.8012932881543445,-0.04215433969311957,0.42813817227616674
0.5396219136588088,0.828105978526406,-1.3972045311356893,-1.7689480236487918,-0.6338024615660862,0.8447843960204204,-0.710355750778443,0.7423935926469328
1.831023810439475,0.6063113656942056,-0.6770570581714133,-0.1838654141011767,-0.6334698940378845,0.6402860789269226,-1.076255587829145,-0.9831267290614059
-0.35960814031521676,-0.9291785292293102,-1.505578246557277,-0.7280644457745534,0.4924622353188068,1.5918660517339465,0.1527988328125912,0.8544547567494579
1.1624100261095696,-1.1478432545308652,0.6493926426139581,1.4159383411569635,1.3093759960053974,0.5535063507882702,0.15439286650019915,0.8977633923932584
1.3649241207275506,1.3126868332896826,0.6338471290236437,-0.9121719815679105,-0.13410770303320765,-0.24067798722405587,1.7562218533865128,1.790563558698788
-1.2219922225569426,0.10738989170842478,-0.46061357786762636,-0.7579067169603138,1.9794834846385305,-1.0299789933786525,-1.3133606682711365,1.1641831813881274
-0.3491024985733366,-0.6108210014743637,0.13400400536459015,0.05124283827303153,-0.9531002150594978,-1.324081539359254,-0.2860294178603011,1.326742254030677
-1.494027924635266,0.5635461127631017,-0.31529650034563744,0.5523698098345844,-0.0881378234287944,-0.18068735377212602,-0.2775765344954564,-0.11627483950046551
-0.17999452219132317,-1.6216019724434407,0.377577701112485,-0.37284460100229744,0.09276194210197969,0.4016782747706794,-0.19453544150910168,-0.1658099034455041
-0.036944861851961615,-0.7323966211415844,0.29806569854652215,-1.0761614754488993,-0.08445032483813829,-0.9950555906672651,0.41405867962054965,0.35873403704510703
0.8500484933034155,-0.7836119957324175,0.019664637080593333,-0.4243191405608114,0.23569079113651997,0.4483766573883419,0.8968186593554859,-0.42844990220544255
-1.0157148376775065,1.0427114415371241,1.5157696923112907,2.069552687401184,-0.9480229805936209,0.35634614078971777,-0.9943251171301877,0.3111815563807289
1.8615373503512722,0.727759877169505,1.1723526047870743,1.0833309575327412,-0.19153156865175705,-1.5841964198162708,0.21892422685035984,0.6292216994976763
1.3306489557395507,0.7840310015794514,0.21976684687329595,-1.0122890330398784,2.1306745937337146,-0.4343322808558718,-0.2749635855278993,-0.2518043745985422
-0.3963540699395947,-1.8247818985254547,2.371916811997787,-0.9686899973679463,0.3683775868064609,0.43182003442722755,1.2422301032404914,0.9141044245664358
-0.6178949954112133,0.09593982893166378,0.8690471929372396,-1.2277919539159927,-1.5090858366588298,-0.0659491075279284,-0.6927230277079803,0.4279303303132541
-0.6978333885572509,-1.287298944267695,0.8087242674390683,-1.5141387514161717,-0.8362858545967397,2.5844919003039735,-1.8179613523086509,0.10511812245387755
-0.48864959054092477,1.2590838427431656,-1.8041041117008991,0.9137176386916596,0.5765452358917597,0.9427389453159193,0.3472663206353894,1.3028879656129861
-1.5164562633288603,-0.34511947450125646,-0.4617863629656185,1.7666592444381604,-0.24832086263749034,-0.613069839253078,-0.7434984284195911,-1.500770436551202
-1.03978125334943,0.1992759070607815,-0.18141206577031307,0.6077915095968198,-0.26784767981136015,0.08326065224714094,0.833120772597297,-0.7378858049340701
0.4476117561384361,0.8672437397083065,-0.43243947200171545,1.476802025820339,0.5986914359606733,-0.3112978599807666,1.1680928035978104,-0.698064315076435
-1.833630298112282,0.04822071155218072,0.759183510390985,0.11423965527794445,-0.06136960249254965,1.2678051756716104,0.25910900631092526,-1.671213393972312
0.8052267453680003,-0.3024482065095802,0.9184900871942466,-0.28837015362538676,-1.3833535235321754,-0.9542755430650401,1.9022939333378261,1.7218714256106296
-0.41472601808023557,1.2243460780500073,1.064747781062211,-1.4484065688321817,-0.28498658898981494,0.2085051109043572,-0.3517067460321117,1.6234136663941334
-1.3529076092621388,-0.7239872171389015,-1.0647992077335755,1.3380699751493659,0.5834766569517739,-1.058526748958887,1.4508949859906304,-0.10246083926211308
-0.8511123913898171,-1.07882755977129,-0.42904895780847846,-0.4965552824291732,-2.657213538749941,0.7488623526107209,0.0571013625832001,0.15932165131060702
0.16695429223385588,-1.2838671674339768,-1.008039594072791,0.6450326331821074,-0.23188976385393656,-0.426388456742248,-1.194733590856751,-0.5031069687505951
-0.420516843890128,-0.21456410418741398,-0.30213241307846084,0.23996970584727007,0.08841138800788045,0.25944550702093094,-0.5738982398628499,0.17441706653390632
-0.9482777311603269,0.7884743823695752,-0.4679747067581738,0.7334971572427624,0.05506023874278742,-1.2346671927227333,1.3353122814553,-0.19345333867404782
-0.9955076197903517,0.967542230387731,-1.4447381999907716,0.271625562012735,0.5248285836779691,-0.7073936820980534,-0.6823558021290681,0.574945212292781
-0.1016948555117623,0.9712316709492659,-0.6457847212342318,-0.33031121377889844,0.9962890045144167,1.1480849448176076,-0.4675958056013501,-0.08464737313456722
0.36915723206493506,-1.5613953277032289,-1.0575471336802489,-1.7686659401820073,0.8584983886116792,0.14856350462398388,1.158400132613087,-0.4250689272304721
-1.0441826874334854,-0.6031037282022681,-1.5239607988219983,0.3398651622972643,0.43031292789116354,-0.37514908047334244,-0.18206051997198505,-0.29223502240857363
-0.724530502521061,-0.7733973954060811,-0.47055146008390386,-0.7378673214487257,1.533298243532933,-0.2230120692014444,0.12023408350584738,-0.29111609616488604
-0.06481748368909573,-0.26979033711920375,0.7262671977443812,0.8405309440213574,0.013283830331623933,0.4546110961096994,-0.5182746573164123,0.7253451918721704
1.07616852636533,-1.294220181441903,-0.5288301176056651,-0.7558003562059377,-0.4462440812233796,-1.11830142296606,1.1313522288315583,-0.5576532835832434
-0.09098481009524222,-0.6730172417402603,0.10732297885473262,1.935903369172733,0.1550403353228703,-0.8939701217458483,-1.5450898087044225,1.5359986713499096
1.4562494324131663,0.6729145914381428,0.608337810705229,-2.0293955497492684,-0.6241637382466765,0.41247314782015976,1.0135162002862481,0.32831695215567397
-0.2618375299075993,0.03909180557203364,-0.38043191407377364,-0.813706693150371,-0.5934947912199069,-0.21950684163226522,1.3130803653798433,-0.10824218745956353
0.639073745085891,1.0890638398267298,1.516777055879468,-0.09599617148242855,-0.8838849530567655,-0.05391495224514268,0.35122354581241416,-0.16184657225440527
-0.1284063511963498,-0.5893858242682438,-0.7944313940274567,0.359656620928725,0.9785070776691238,0.7853969397693453,1.350042030757042,0.9013079721453375
-0.42144675865994385,-1.172508141631395,0.18285968360486268,-0.3912744895013943,1.7280314155260945,0.9702519970199007,1.3350656019795273,1.219705449339379
-1.0374668608594542,-1.286031285063229,-0.5489831862331835,0.446488324935706,2.3939772165548656,0.7187212507466592,0.42933996245201284,-0.275251347966024
0.007642789653080429,-1.2272622106821909,0.5280069143314641,-0.8711764980468163,-1.0000982442195618,1.2281037987766528,-0.12472662545945425,0.1555038349433515
0.617824282971581,-1.4346275624113403,1.3531202364807184,-0.3284720760176154,-0.6715153241150149,0.6205721407308481,0.0812921560395391,-0.3071565508875296
-1.4393990526174452,-1.3082506099401592,1.824107967659293,0.7096440373480591,0.6230181426487182,-1.3659220528602356,0.03584077452442104,-1.3630480753324046
0.6559915229696324,1.4464319527029128,-2.2856294355663445,0.8414790284266574,-1.16425538539001,-1.7860931030931837,-1.808614887202868,-0.9065250720937054
-0.6706243143230408,-0.5085804892573912,-1.6624936211155288,-0.3136760646499381,0.4117219815679212,0.170585027971912,-0.042126847823058464,-0.8729205112239503
-0.7937258530973361,-0.9435437627111424,-0.6522186819716685,0.11545417857426575,-1.835059089120522,-1.3111943015915501,-0.5184349105279329,-0.9756752266778407
-0.13669681755570667,1.141858037759039,0.14504613366242153,-0.20240364818231302,-0.7090583438977319,0.8992377536416784,0.31613533622191764,0.7808521676940932
0.36126559049640683,2.456919562354766,-1.0879695270852494,-0.1374212232320307,-0.8029082169352213,-1.064116415082286,-0.5631151428488061,-0.319918201893297
1.8416949541374659,-0.4178900347008783,0.2363924162643902,-1.0728093967221162,0.6390196395871841,0.6055680986534663,1.9742650035034188,1.1434863779678681
-0.6310227387455176,-0.22153242901378947,0.3555963126114287,1.654087774832023,-0.186852036895913,0.33903407268285174,0.32361534369283784,-1.3546272424309413
1.3867164823801048,-0.8455747865607323,-1.5677235230469768,0.8926344488758928,0.3896896054178097,-0.47183235567127113,0.028201471920531643,-0.11670081570077165
-1.5166668075924208,-0.24901261648544895,0.6620402857757199,-0.5736520003665232,-0.32120385405548635,-0.1537375881748671,0.02152403362492004,-1.0770425823374354
-0.15359274253060148,-0.08161534594475567,0.048362639464961055,0.7478093391380716,-0.9886752267571083,1.8914941962274172,-0.17394621838558838,1.0837817729976522
-0.3826455091398623,1.0926601024724039,-2.5999019833326162,1.996347472298705,-1.481546851062648,-0.015895280696979194,0.7207157471628772,1.0692647016877446
-0.49007300945337295,-0.6108715716020275,-0.6760459539940906,0.8054345762712732,-1.3399023570872683,-0.018461158169742503,-0.5597678090381835,0.8595904789947371
-1.2141783022201198,-0.7656734618791514,-0.45052127731716685,0.18867180524952679,-0.10395412578614481,0.4569718946160984,-1.550388407286516,-1.6442390320588793
-0.7886617915037353,-1.024008333634514,1.2992286813633884,-0.49352834971309467,-0.3674708411864747,0.30544817305533356,-0.2520015273501968,-1.0274791990775753
1.470804400754855,1.0417230302630094,-0.2750364982685974,-0.2700866002304876,-1.127174928429639,0.021830311173012713,-1.982162910066811,-0.5603228477569006
-0.5751670775903366,0.017296650704780772,-0.8685919582876875,1.0512800688119393,0.9859782758507485,0.687463535497517,0.1490146591967244,0.8869821521954305
-0.101174399028335,0.5481161656482691,-1.5191560110870876,-2.0543205919971617,0.10200418476032361,1.6241103472029774,0.36411249814993224,-1.227608303047361
0.2659550794307345,-0.5127052018292703,-1.2445941378133436,-1.1592783270199927,-1.5119253936314392,-0.2076228225691963,-2.2165181656129014,-0.608025619665314
0.9759779892086304,-1.9361862048510057,-1.981502302789605,1.5944602673967347,-0.5326460187463189,0.09738103949829553,-0.24681347593255037,-0.39440655720119794
-1.7937057317146552,-0.2892176815652875,0.2972492697132821,0.07623911011711096,-0.8886680993974972,-1.9212673969918077,0.8004568006469317,0.2570328129055002
0.24488983557546348,-0.7733685287168093,-1.1138359040888726,-1.0169855984543121,-0.5913577335589714,-0.42044992044134805,1.4681679449723277,-0.35868667641553525
-1.282390713962118,0.358559491909773,-1.5920164311307115,-1.0840246941577258,1.5299231964698567,1.1762751638426598,-0.5072475254279005,-0.8205798510614158
1.4296277480646555,0.5944946888730099,0.02646456521803179,-0.7549755196625257,1.7120614038658688,-0.01886605889379789,-0.8844301232112542,-0.8029228528162047
-0.12334479841183622,0.7870657629391674,1.6028653726774673,-0.19366854862077987,0.8556764138929497,-0.763122527157604,-1.2798528759297676,0.19918106852217418
-0.6849765047944487,0.8192947010222108,1.3185536823936677,0.45251637671187384,-0.3815393586201819,-1.0614986434260234,-1.8658307286218974,-0.17952408914769372
-0.6410922749506007,1.95431696873981,-1.3171180146932582,1.331517987053365,-0.8587087489594819,1.321054412136685,-2.5483491108784464,-0.7762752409795064
-0.34881165388365803,0.3325235961238278,-0.1644310521799693,0.11819014398320715,-0.03936760901862275,1.0767083410025797,-1.1163814817867328,-1.0628293796745434
0.9100160137069143,2.0553756231939464,-0.01974494383133899,-0.007895032609602006,1.0490275451246118,-0.10530778144521015,-1.1148221071067328,1.468943773593509
-0.40801815920370055,-0.35482525449506896,0.13732505321293703,0.06541408326017928,1.8266153502030065,-0.37688082519896415,0.6956545812680783,-0.5800605690757772
0.6155518150351927,-0.215851311451667,0.8310454694201367,-0.25645814032221004,2.203100036789954,1.0925396588322096,0.7772625043359748,1.1628712919785236
0.9516785460015508,-0.6119085882834421,-0.36052223937212596,-1.388259642772902,-2.308937006398885,-0.22556083547265324,0.9286967147112151,-0.01313707826536483
-1.8986475959096865,-1.1776516068800114,1.0664124725607207,-0.7491588345559904,0.25219767365956075,-0.8602759295132192,-1.3784233771419745,-0.032315708049024144
-0.6737341022320552,0.8274147571905734,1.3821300364245903,0.061300738867008354,-1.7716542706680325,0.41414537050369116,-0.5350609438618235,-1.4026108213085562
-0.5508717596450902,-0.3957965292938467,-0.9179049211237363,-0.6932285703878618,-0.8209660795618088,-0.29999281708760833,0.7347284227531783,-0.6113158255050201
-1.8244553178775003,0.33462568059934944,0.8737848871982886,-2.5335311094739246,1.8727249358919311,1.4653541732235713,0.3147730784477186,-0.588186084164242
1.751069549535259,0.8779078851431825,0.825934538638529,-0.2064340797004157,0.0843157713865251,-0.4537606462511083,0.4671338591043516,-1.2470019099241165
0.3357254941545922,0.20538453318968425,-0.34116565408353144,0.461085284786309,0.9949199977608781,-2.3143901945515433,0.44312881027648154,-2.99505106061173
1.292455639164923,1.3614548185304116,-0.8918332379169133,-2.2225998432597773,1.2199420319549914,0.6510303050506372,-2.137093735251714,-1.7524210131761517
-0.37486656403382423,-0.6753183206795714,0.5656896262232255,1.474202895652029,0.8456291986695831,-0.988205609569221,-0.48530462889846143,-0.8955155530192028
-0.4512837871380705,-1.271816238185229,0.27482598613606096,-0.8233606255551467,1.4662503261398891,0.6128015688807186,-0.1239824870216394,0.7367389209830785
0.42364278807732253,-2.335111083893853,-1.4675645495239975,-1.742464345297453,0.8324896507466764,-0.7795725153827171,2.394802728338094,1.554285574967722
1.3993348861480506,0.1470346499005933,0.2793603079912482,2.83296025771475,-1.1826805896069332,0.919772987117509,-0.10653169246655575,-0.04830463194605724
0.9147845933513095,-0.8490822500164967,-0.2916854928355467,-1.0133969766222286,-0.3198361224056658,-2.471071532710349,-0.8564853716280703,0.5182588500286185
1.1124817158536289,0.4899358511197075,1.421391958145145,-1.2172998037990919,-0.13396966506223817,0.930528488860065,-0.5553135750494514,-0.8673112578686988
0.4494757690481106,-1.3752282949139811,-1.5936579706366523,0.8303249151141042,0.1524088819243104,0.3409852264083296,1.324596520316705,-0.7138603095594835
-0.2047774017539063,-0.7478397743758378,-0.6236804657138824,0.7271387475700603,0.18035951631848482,1.6091031989158877,1.6552568930459945,-1.332031792862878
1.579474051489707,-1.925955983047715,0.270383355162503,1.0032217883161172,-0.737054653901837,-0.8743372335673484,-0.5766227575921422,0.24758038462074783
0.9094950956496733,-1.2362427238984066,0.9376414269284397,-0.304588140873453,-1.207830559455106,-1.89008880957793,-0.07625454715378237,-1.0641094396403246
0.7524258334166811,-0.8259755868027979,1.7317740511360669,-0.9807118771090891,0.19556374103523536,-0.5295456160487617,-1.0644485284028224,-0.020681379226127315
-0.5932132987895398,-0.3779862172329133,-1.9878746237201268,-0.6281681655561565,0.4349305131112323,0.4654246026279188,1.1815953750363655,0.8494052773883457
0.9169222675741192,0.4764133189258552,0.7572329892511402,1.923210850568299,0.6349337095036237,0.1046184174249366,-1.1993355728292059,-0.010026736469657157
0.3937610154094569,2.345135518299706,1.844328795049656,-0.8503252008221197,-1.9913415155481027,0.8861414407778058,0.09573492103066135,0.17106749423299697
2.042766174784725,-0.39472832057663315,-0.26615169661761096,-1.1687131321743562,-1.362978063498162,-1.089518979195376,2.1809922009412746,0.4934144604261311
0.7364347840028785,0.30224778628412285,1.8514969147037927,0.8644383483121751,0.5698575908829763,-0.4565729792234427,0.035360744378200054,-0.26985663686919314
0.6145620437768482,0.5956539255621686,-0.8356341251009958,0.010880672039054925,2.086909757813708,1.9588299234539601,-0.8688166096027249,-0.045624344037344965
-0.6908160527594069,-0.9180749994613985,1.774999579773625,0.7876205741267938,-1.4022793056174327,-0.5705726154531015,0.1418754180699431,-1.4977734023081428
0.08155283061536865,0.7484211462022355,0.0726335778438275,0.2747016172048052,-0.847291964590943,0.20505057746826005,-0.36734863971058224,0.9269650788870561
-0.46424611606014243,1.5824893766287356,-0.4949596711868244,-0.7686876535375691,-0.5824591426895734,-0.7320950545369839,1.9322558197254809,0.21610380123939874
0.0370780191123583,1.8825703822912505,-1.0208493874887077,-0.9755609326793964,0.16059313704755687,-1.1295682006506418,1.7695781044550996,-0.20547593594826064
1.9471694850942107,-0.8693140488390038,-0.22233278529276174,0.08477944198431363,-0.32997161759884325,-1.6772880198210711,0.826776940828024,-0.46692224880270117
-1.247495992319561,-0.08230129555257448,1.4902953625880475,-1.1054109575254156,0.7925276015892265,-1.428385100426499,-0.5311764667326314,0.9715396835998091
-0.24984947342193978,1.282749139166573,-0.13421702048497983,-0.43096898400919537,-0.34552015977890144,0.7003238234229126,0.21443627275963603,0.3923834482871849
-0.6847166633365014,-0.41459896991130424,-1.1557923753877006,1.4010707267166702,-1.2872684094548568,-0.6292011751733526,-0.18594857341044335,-2.1872386637497185
0.7335344596181155,-0.38154864314366044,0.38131604772279803,0.42107458664296127,1.5457786866853624,-0.881318997849123,0.9520651287307819,-0.154794019741592
-0.23753395787639373,1.141672997947536,0.1888897769451189,-0.47370426882726335,0.8965940334809254,-0.9607840375669807,-0.1858269897418335,-0.5570171870963354
0.5037743162252606,-1.6666438823192495,0.48890166257217704,-0.32169724435771124,-0.7101390554844089,1.2160857587580942,0.051146772798610185,1.5894423821360244
0.3800531129746161,0.4653400865528434,-1.9220181870816933,-1.2514907347086595,1.3059043851038277,-0.5798864485306644,-0.5811025003276902,-1.270425033158895
-0.7189393328559869,0.45117324968084166,-0.1531988556737792,0.5221573397631906,-0.21732950718166713,0.34833914201664773,-0.03841548099154472,-0.5529890499940461
1.0832014849692684,0.8666959304903461,0.9871293750906674,1.0022388945770397,-0.11276639354732508,0.6834636438765689,0.798639878757612,1.2913106579916391
-0.8192602671039836,-0.20885803258535401,-0.3988151042406356,1.1174233072361528,-1.3778556819283974,-0.6559897264995797,-1.3568233748652208,0.555089477278272
-1.0924101349063393,0.13505629469195213,-2.1502149010416725,0.8170721967989776,0.6300488930953762,-1.8542484864997326,-1.367568293395337,-0.19669288050186182
2.438039920191421,-1.1337677904367423,-0.3069349474994908,0.6703368379159521,-0.1917767935162661,1.0323035913960414,0.47679456873574483,-1.4245967049570083
0.3989771643218619,-0.5973792762351708,-0.3241568228711743,0.43232966060729716,0.1489729539356835,0.3192203880318522,1.8915336491303425,-0.600028937293176
-0.4710221245137747,-0.7645914707051902,-1.4327727055035762,-1.0503158073264618,0.1541048050684578,-1.0893717190433543,-1.2181604053757267,1.5354885973122563
-0.10199750829287438,-0.03882896833169062,0.5526883816226544,-0.547448119854857,-0.9047294109356229,0.494518601218575,0.995723004668214,-0.2883694707661454
0.41085814663232517,-0.5852152992761191,1.0947443039811715,0.0553654507155788,0.6393359096534039,-0.7010023559517327,1.2495938492324195,1.3118505147532422
-1.0382532698452893,0.8430364630247361,1.2298657854982098,0.13819594382218767,-1.2726337217900139,-0.10710285888589306,0.18467286420248374,-1.1903445431054807
-0.4386153355617291,-1.0811950004593769,0.2007381628739485,-2.4650566144703405,-0.13966164153614544,-1.1381732988073268,0.4122793451668282,-0.037896968922873274
-0.8888268891557873,0.020325859313022478,1.9127000724119987,0.7432824780110181,0.06650390853765438,0.2795710551705428,0.6837399551278608,-0.0864081293227464
-1.6205198937618535,-1.263456932170823,-0.06010964485387989,0.05045215054692267,0.25572643644399407,-1.5821773846779108,1.1134311173444715,-0.5386723628189279
-0.1726358497853273,-0.4873118337685496,1.2085479153351044,-1.135188514921449,0.030433485234879678,0.4857133480628749,1.0491635205167718,0.5450047826995273
-0.10178988952034937,0.37864996573684867,-0.1408324084929148,0.49438416587554257,-1.2573403062336173,0.903146890528694,-0.840490528595607,-2.1585100244104107
1.381917101102134,0.3786626711836443,-0.9967210128327025,-0.7068658931467262,0.9655248359818535,0.09636950736054682,1.1928433695278515,0.38179774225043955
0.13191287518321854,-0.5090387829740761,1.57192665515048,2.539832863165475,1.3854945034054467,-0.06351576108497432,-0.47500617325313693,1.9256582040750267
-0.7681033341852559,-0.1591615322878971,0.26142964439746325,-0.30168219566107785,-0.2763397759479191,1.2319435387428417,0.5192220990100621,0.735442272085256
-0.17279706636071204,0.5500911243352589,-0.0045393476328428545,1.3979402955481424,-0.381349197253267,1.7108491227116036,0.15582613576217377,-0.007601252272387826
-0.8030004768325152,0.46287600178506194,0.8731769572644749,0.29740743226679645,-2.016374012465287,-0.7327828737399672,-0.13952516457060488,-0.08908516231067055
0.04477236095596104,-1.3827737986462627,-0.48488003234269866,0.14542768437744927,1.6031813529077301,-0.7085742636623246,-1.210318375743504,-2.36223504628009
0.7221650217070431,-0.8811405154556446,-0.5250123927488385,-0.698193389635163,-2.0329641871519053,-2.5202721624097824,0.2367556670842356,0.11851590655579629
-0.7067559517484474,1.7903071714231438,0.08583411299468058,1.4383084187053798,-0.7030811770166033,-0.2639497246989879,-0.06284906810978408,-0.2651611492516663
-1.0987216023529882,0.7908596177990469,-1.448764007735311,1.7175288941588989,-1.2379246579481948,2.1708404652932054,1.1280770719877082,0.011138906200782986
0.8499169723415188,-1.5239466051411739,0.20135109848897806,0.31502845901009024,0.40581194751496774,-1.4697409970389368,0.6651164789211614,-0.17193418745862266
1.1016226459226275,-0.7078793918135784,0.4447441220339555,1.3846924094478137,-0.5513899747265263,-0.5608594046670625,0.567019425309935,-0.5992302649584315
-0.6907595118929792,-1.6868805658139652,1.2633054995087627,-0.8604616314349085,0.9110064522976279,0.43892552046105765,-1.9949085652248948,0.12315323995549163
0.2916409010785666,-2.6306751437790363,0.5978431758557917,1.24562513494364,0.09680007057090462,0.041258954974609206,0.45758561677614806,-0.1568458213258294
-0.20242202932441491,0.25846022352806336,0.185134554195254,1.1155584983495601,-0.8631394120415682,-0.6015519622122147,-0.31437228129240996,0.7490575380653011
0.3929152014981862,-0.7816292618016192,0.579566965013928,-0.15283736164267778,-0.9874971332555585,-0.9209032816845265,1.2377984504139081,0.8028610735227386
0.8900221991433056,0.7307198898942461,0.33508709149966337,1.0039178152897745,0.733600429406225,-1.0338192038992633,-1.0805000588671518,-0.06721064695230018
0.660254778476709,-0.5262129093554738,2.18629394128551,-0.8441251517883193,0.9140472548798195,-0.12895514371067568,-1.2706102994595923,-1.8596874946271207
-0.13530674513058594,-0.73221038533267,0.20369501375650578,0.12479582752548674,-0.3321745735016557,-0.13311088730169024,-0.4055130426919602,-0.3985005757891448
0.34780536146467556,0.916735616979593,1.1590924744584816,1.0446691673268738,-0.35091095104382086,0.028301029614377485,0.813912485320969,0.017641815980572694
-0.38862507174071886,0.18496694417684417,0.8439648067448502,-0.13692207071107038,0.2273535860167808,2.041243933283492,2.013180160548997,-1.442494923082519
-0.4261881425813609,0.9398245405602577,-0.2153797042734379,0.8717145772175263,0.6112885862828112,0.770895710496682,-0.37876822802477816,0.7138276048105983
0.5616975799001124,-0.3621477694486789,-0.5479457280124855,-1.9413297934221536,0.030604253288750844,1.6816098490153661,2.230775711691927,0.43448087898330007
-0.47774116073155243,-0.1095690823721974,-0.9056467646631747,-1.6263539353161862,0.5188645468934114,1.8439714170661357,0.046143758073874934,-0.3756466159030173
-0.48072892262670675,0.4686388500696485,-1.3208203929541318,0.4882076574806449,-0.7116482085359258,0.5418232792263219,-0.21076943120752648,1.1329895544993098
1.4347204572575234,0.45677950532182016,-1.0459727381242507,0.46801109556905246,1.3612828101367243,0.38605647199385923,-0.9693633250076625,0.21840105440917426
1.651558208761086,-0.410452867763006,-0.9423352860180115,1.6565888716704946,-1.4997093299154542,-1.731110572387477,0.7573424142931873,0.6168556617577572
0.7762318972120505,1.5930764002977977,-1.353782707639031,-0.3734577233098734,-0.6963445705050084,-1.009246033017386,-0.9675375273475864,0.13108724236217417
1.8090238089586828,1.6114556348435285,1.9017254025935335,0.43589434417379025,-0.5635004636583955,-1.1640372307914,-1.0684870109501872,-0.47104439275743704
0.988429230465768,-1.9379980555897975,-1.7164170694852987,1.2745348770732452,0.10026641860578181,0.8629918818158478,-0.2806680431226583,0.5088575979293444
0.9711215966407201,-1.2806379324713306,0.652012321581256,-0.6063321113956103,-0.863580573308012,1.4393414743711312,-0.6762480678960001,-0.9655001029110426
-1.31522860436733,-0.5970875720246416,-0.5063299875707078,1.022084957760255,-0.2972387601829226,0.20838170304564427,1.2027811303699978,0.7085663201133043
-1.1907695809121688,0.969161933477311,-0.8087494219211933,-0.5776572060037739,0.800669769494345,-0.13633715034462762,-0.2508718314803775,0.6495227830745555
1.3850430067835422,-1.4587826169728386,0.4253782396433807,0.15744685200546651,-0.35286432038684634,1.1360081836885536,0.9156624010894813,-0.6014375363376524
0.034472746787024215,-0.7703384106296104,-1.3196040696916838,0.03548013134155149,-0.5227060839936175,0.2894623297621538,-0.9661369663381674,-1.0711243460483642
-0.11398897048798272,-0.18887735710834588,-0.6402898909126554,0.9197483037453482,1.070075076144823,-0.8020194875998403,-1.0283085366019422,0.3359183584503425
-1.0261703192284297,0.16506241757088075,0.8554017390639491,1.4562931214515442,-0.07777694713683685,0.7291992989380354,1.0370495557464017,1.3787578715326436
2.1724254425702165,-0.407578618595417,0.1953725661143257,0.5427570302727202,-0.029186543432706605,0.5598712894111433,-0.5230305919109807,-0.48162977042855415
-1.484745090006224,-0.7204195288424154,1.9468804478901098,-0.5197499773778068,0.2447664108258235,-1.1769874855421814,1.8210853543517005,0.35828894256774513
-0.036047258127854344,3.245919025215608,0.31457989540743553,0.3769008042402074,0.30827239902660036,-0.02309186465349693,-0.4714538343822749,0.39487463231510805
-1.1065170018921784,1.803462024672823,0.4528336611186379,0.4962387418356414,1.5855083503897172,0.41786306367397,0.11470739898055302,-1.394189296493235
-1.2212673282153304,-1.52775428639155,-0.9247354768733186,-1.9835577624359464,-1.315069862519011,2.5365975776149714,-0.9024873563750573,0.9863543482972799
-2.480849111525132,0.1981178311711835,-1.3325414065633114,-1.260470251541023,-2.2426822469023016,-0.18364230502889817,-0.10891058254472515,-1.4323545866421317
0.4187349458807247,1.8535535100766398,-0.14800880789122628,1.111410607925106,-0.5139837937638583,1.0717976119714843,-0.28087560042971826,-0.8714181397544156
1.3971548689132958,-0.5980856475046552,0.008418466425926863,0.7021614857303553,1.25284066366201,-0.5348728513764013,-0.49178897630872875,0.0061646145484757775
0.07391708983496567,-1.4425094958776898,0.41582229086248745,-1.5609549880881557,0.27576430351340525,-1.6063881381920455,0.4180750750649424,-0.05042115932073765
-0.7102167851923187,1.77620067311767,0.10530813836773564,-0.8456415457616414,-1.4412210320458456,-0.5130165182467473,0.18782129115463367,0.6726383480990297
-0.6103173878802011,0.35115367416741383,-0.9096836035010948,0.044063192015915936,0.5640853068387883,-0.6195148058704742,-0.7676620055706666,0.13242149000205028
-0.2571135815967442,0.5358875715660115,0.24935728306833538,0.9596067139610445,-0.7424084152695201,0.05847389210032494,0.17181442609724315,1.4665451089674795
0.3910161282554823,-0.497303262097059,-0.2848121691320915,0.629748538691379,-1.6884913352735746,-1.3332401413269275,0.31385706722307305,-0.7674088538577843
-0.24155971108777807,-0.31088611631928,1.2553028190750646,-1.1379950900000602,0.6862951394360978,-0.2156466456757321,-0.35694456481341214,1.8932885024656123
-0.6127261672745665,0.1654740774973572,-2.3314901649162345,-2.143133806055357,1.057363230766639,1.0879618490250753,-0.43149823637149176,-0.34792525771901023
-1.4032023642649856,0.46792407721441,0.15047870806738362,0.4081358672945169,-0.2264028459391202,-0.8492646489275713,-1.6795328740702062,1.3278381920459357
0.2555363516018298,0.11966682800827819,0.5851464567828268,0.6141274217382648,-1.085177151220723,0.8251385426987152,1.359650201739751,0.26242831030064967
-1.1644939887301007,0.7670360798451326,-2.9344162546058836,-0.24415260103983924,0.8468007523543551,0.5940111293342443,1.069786485758996,-0.736557919813954
2.2921563764761737,0.3098617987218793,0.9011004884176584,0.13338798154271192,-0.34249193094988334,-0.6112868833003914,-0.18630216452954984,-1.962360192954846
0.9558339420789493,0.4571082043286623,1.6826672171611334,0.2774768525900573,0.0168955318251127,-0.20978231247986068,-1.3385970373906482,-0.1863452985503121
-1.0796666416213396,-0.7818820174063026,-0.5939298733755539,0.24841824854155475,-0.6277126143549997,0.7497900648941099,0.1522021058456133,0.5935036568638216
-1.142876009240494,-1.1051459121081266,-1.67901885755631,0.1699650400339392,-0.04491025197738332,1.1646004431868484,0.5427389893952725,0.41572318358332017
0.2642137502680404,0.06786608806301193,0.054268855550199606,-0.8098417294869462,0.25857904049504277,-0.9943129116966009,1.5877802393785239,0.4693689796121109
-1.516974172057943,0.027237574092819492,-0.8900543000566883,-0.8000828629883825,0.4109204809034285,-0.7096283689362931,1.043396510665999,-0.6385228645844291
-0.06668136307397911,-0.19998172725709082,1.6728213401325949,0.7267213267908718,-1.203313722920878,-0.1949489986059029,0.45683439332195414,0.3949817729744661
-0.4179266247965498,-0.14065097645257044,0.7908320055993707,-2.7015177652395974,0.379428680954924,-0.686740864312032,-1.415273347527173,0.4266155948707403
0.1569777830797706,-0.5943098075444854,-1.055548390650095,1.467812626412357,2.079692570357614,-0.6749313029786502,0.7951644140029926,0.8820651496022383
-0.06772149125015142,1.4481977924094969,0.0978704846527325,-1.005064100828177,-0.9932657766401081,-0.9630816930009275,0.39331144808508417,0.6598715230991963
-1.2632832381299421,-0.2778749427469827,1.8213261484994563,1.3857293406377111,-0.7017968986344337,0.5304600986684922,-0.6508669944745141,-0.37921315722572446
1.1205292596015985,0.36072080947549523,-0.2550680631534829,0.7847633280249502,0.1865073120913688,-0.15720668698336743,1.5781098222927887,0.9430976340323067
-1.274375127094756,0.11517768330293819,0.2092545061273942,-0.5790602176187413,0.9327748796372023,0.03171135376466327,-1.3191324926071164,0.6800722163483917
0.4212086571499905,0.5942279339180431,0.7572532627235493,0.0770164388577692,-1.4452871884495377,-0.6410639572914826,-0.4544325793206319,-1.7363111121877859
0.5575510991461642,-0.1331226041553346,0.9325872542770449,1.6434828014410532,0.7853106269627005,0.19691814303035204,-0.25623104737588404,0.5396728538336629
0.8185862273895383,-0.6665140312403268,1.8672075339888015,-0.720999039095883,1.8569492855445433,1.6071478473927499,-0.3632788711773551,0.8869964076001352
-0.11816931844675958,0.4402042732421759,-1.9980367403149994,1.202056363744171,-1.289342856983026,-1.004646058846318,0.02878791739842051,0.022351144683206172
0.5264753284204164,-1.6084245607753407,-1.2114476685521811,0.6471996996366561,0.06404262383775396,-0.33030250488521146,-0.07449220666275877,1.3016318404605847
0.3769643107703304,0.04206188366117941,-0.48932213920595735,-0.5692763524850842,0.30137108206487045,-0.17664796582366987,1.1616887146034856,-0.5014123606357841
0.2805523726463561,0.08481261439681777,1.647028170805421,-0.04578254101650835,-0.6243785037482834,0.7772842512749603,0.25772982344361667,-0.6802357107446203
-0.6014246190154399,0.11610708396677592,-1.331445672198616,0.7756660609526191,0.617720610104751,-0.5317614610893503,0.07913452254906408,-0.7353160130614583
1.4594432620997593,1.7617155455947173,0.5453082727509527,-0.9460239229489752,0.40792274893038866,-0.7663892453625597,1.7964073465728805,0.18927899729487482
0.327953412740157,-0.6685307147598172,0.3753946092592825,-1.0633656037481496,-0.012349019709833537,-1.3209506160697304,-0.9323684830826463,0.4279317921012545
-0.1783750691001849,1.2789884372250264,-0.5970147064283895,-0.8233663838928296,-0.5797646371904193,0.49634262974717025,-2.1946236866990265,0.7469817835306947
-0.1683097620589941,-1.1080305773451165,0.9048609634444946,0.057640084554882016,0.9180777587782853,0.1421285198899992,-0.09900186877472791,-0.4275598124079591
-0.5456842667310363,0.22523414662065938,0.708442496217652,1.1817605133477793,1.2684655371017366,-0.39964283606911183,-0.7467392906006777,-0.8495640112337141
-0.18863125070736186,1.188700533530753,0.8018200452249756,-0.3414946110789582,-0.5783853948113008,0.29562101872455765,-0.796306561671497,-0.3401843422270503
-1.5457509574522228,-0.3917489840819428,0.05973913228947641,0.24132769982808883,2.3024887472306084,1.448264454299559,0.061765066765070244,1.4088093554569643
-0.6842917395126045,1.4388388531981777,-0.9512864428583341,1.187677369094181,-0.07677058774707567,-0.19574022824285175,0.09499066259667832,2.549276423613349
0.7198514400711312,-0.20823711884585175,0.1917382708601315,-0.675659873770201,-1.0227525059715579,0.1406244735493986,0.4165650671749949,-0.11662470445124432
-0.4131317372427515,-0.13964421917795386,-0.49346777179705476,0.7819720599454052,0.3742342611968679,-1.016400465219218,-0.06624342873550047,-1.2620887725596437
-1.3125565737812521,1.130385277032545,0.563574046560619,-0.9254716035458249,-1.5628475698587245,-0.7005349134218828,-1.2446863375981627,-0.07587922780275835
-1.0503090748533885,-0.8075567627274487,-1.229027177310401,0.7900309421387259,-0.7213650890697177,1.5425443567462718,0.2335243529576673,1.620960270782095
0.490412366625535,0.057104114390649774,-0.4525073453555744,-0.4932556437978197,-0.15317618357958598,-1.1970080244864252,0.47119071694197423,0.49410191195233094
0.7224529399755174,0.9032089401886513,1.6299951422364911,1.9330246753907647,0.617131069386342,-1.259800597126882,1.1247355479995242,0.7010843619848068
0.482480185342311,-1.380425806407532,-0.21801884803074464,-0.3749187155261372,0.6212146719192666,-0.1576283267720806,-1.0626178286819459,0.8604888118321731
0.12157395787058885,0.35375830034270833,2.5287374562160094,-0.5898659894992164,-0.2527620104754102,0.08361491803208593,-1.5650539668699963,-1.1019733968214078
0.6801825497101573,-1.7132845527986502,0.48519669037220003,-1.320650291275029,1.385038935696435,-2.6090543635976298,0.3658707052127664,0.3484009125434081
-0.8356253193950917,1.08020046419669,0.08907036243624906,-0.33924752035024475,1.2301181917721378,0.56761433881208,0.4796044601474311,-0.13740974572347528
0.23925671599852066,0.46093667650543263,0.6846119234218699,0.01595725120624196,-0.42211092646130416,-1.6012388252849323,0.2934128785084916,0.1390076114364703
0.5660293089588723,0.0031379340437216545,0.6099125344492684,-0.9559267730700366,-0.1921451087995363,-0.17023291384018116,1.262162910275864,0.23459331357194496
-0.4552846592564191,1.0183599144474131,0.11296961134692605,0.7124806279462499,0.35716375090567554,-0.7451063795435954,0.8762070710394317,-1.5682821174485126
1.201422168365954,0.5026005850648866,0.9006308676896817,-0.9628858681644806,1.4926428805337875,0.3141422668789649,-0.3527861421749336,0.6912770316832688
1.0610282914681277,-1.4848700427156027,-1.134520801841002,-0.8853927769668135,-0.023240963185374823,1.7597675640982637,0.3618435782382547,1.434761517382768
1.0421213778278047,-0.04174756181724129,-0.10307390898024682,0.09714565136796872,-0.8619866556963617,-0.052269299459325444,-0.8637593405218866,1.8195353512653942
-0.07301939648683059,-1.3762188392887653,0.14047786903360124,0.7384839558032241,-0.891320885054602,0.4948398131854889,0.062233938571472365,0.8635070867162364
0.4585196378506583,-2.239391820546356,-0.31837995133837427,-0.8728682130785255,-0.9255803527313784,0.5856881617856987,-0.6144063373264614,0.3714517955784378
0.003444491697915728,0.612347909781953,0.5194056573758511,0.15599319204691672,-1.887796525517414,0.02273042452827383,-0.10422800769505756,0.15461753468750614
0.5773563579488876,1.1502327146651048,0.39846343603536494,-1.3235139813909114,-0.6314760732814908,-0.3058293385695761,0.6394079245427828,0.0032894265853499766
1.8509088674658893,0.38707677676074936,-1.5780751047656874,-1.0438705718507895,-0.9965237159409113,0.39249116083620345,-1.3064478145939946,-0.9878460445121457
-1.3355177753817216,-0.24010300153027545,0.41510871426644325,0.6117808781829075,0.03160110871332806,-0.2531166228105459,0.24704687813929785,-1.2709322568261017
0.45040819108919183,0.8030864056220325,0.014656876598360867,-0.9894639220698607,0.09130886610012977,0.47187663970198906,0.29575885425406745,-1.3628757926020585
0.5816275548227599,-0.8856633732133664,0.501828202195731,0.7247815290381144,0.5928886653503369,-0.12015114815241527,-1.2664934030966404,-2.1106097921323976
0.24933974501677178,-1.0729211421555072,0.10690277336070385,0.8522570350185478,-1.8712798919593456,-0.3003832120723374,-0.08851587971114908,0.12285524007000286
-0.44776747019623264,-0.7986401326124334,-0.6557688182082452,-1.414097170686961,2.060481467448553,0.13157042945241432,0.327611694509846,-1.2355480260304477
1.5500963207105374,1.2348691463703945,-0.8803065812316319,1.5779655451560428,-1.1497954369757775,0.2773915526775385,-0.07433221739570055,0.047045222042952944
-2.2210421061487766,-0.23859856651233788,1.2540166797961692,-0.8658175891573188,0.9922708243906156,1.2879914477531496,-0.23331871826203002,-2.2549521496802583
-1.832029901974904,1.2434058830264507,1.151503062313464,0.8848363855397703,-1.886333443694371,1.2775597161437238,0.5420011304322421,-0.6064336132776267
1.659644347998837,0.47696703516586936,-0.7496394728917564,1.4171513243894074,0.4299820620309974,0.10645885529343263,-0.5543538206826423,1.27531308375664
-1.9126236092580329,-0.31792240367153063,-0.1658942115648769,-0.9075686148058164,0.43922914220786136,-0.5631236517295372,0.6669801449334797,-0.7456329135358812
0.3009146628217527,0.3581723689409124,0.6024411474732487,0.31057468884698863,0.06995568923455844,-1.0547616352560607,-0.012786254511302272,-0.27646991966628837
0.17864529991975764,0.3312591035225459,1.4576549573250912,0.48917618144380953,0.15461202703492263,-0.45350539032586745,-0.2374339480349818,0.075296776955971
0.9262865028486402,-0.15726882457434962,-1.1633848533353135,0.8115452341290942,0.08604300718228167,-0.1706376212832936,0.6715764032711709,-0.433805677155469
0.6155127464001866,0.41013005862166224,-0.7923783262368933,-0.43487664012933086,0.1595701518871801,0.26972758267226293,1.9203098000231411,0.048553831835873404
2.6793924944054575,0.8112082131983259,0.18961756101279448,1.8459988183306035,-0.17395840927721587,-1.2216165208005925,0.9372072056083459,-0.38968880985519067
-0.7804431294187545,0.24569727436839667,-0.6254210460218557,-0.4937662068579827,0.9552496832435075,-0.6430883241398061,1.7802614468326265,0.7850211634081857
0.3570121584280788,-0.6253244265238418,1.789289915541366,-0.008632608158090988,-0.8130751399591852,0.8617159109449525,-0.7794955533628597,-0.7361457884158321
-1.8036861728073892,3.1514191968813132,1.4250671344727137,0.9445472941461608,0.5999692424341908,0.9611940748660082,1.3237440659189614,0.8971169316587488
1.1816861021363403,-0.8962814138250258,-0.518567699124412,-1.9765753774439943,2.5545370788128303,-0.17860696543773794,1.1924607170630959,0.22178147400898432
2.7801484385220707,-0.17442425269997772,-0.037749050938924694,-1.6982075423807743,0.7396889246004342,0.9606732824964832,-0.06450608712633606,1.1083111042968108
0.09417790032929413,-1.0142854196485154,-0.730717976540943,0.6470641450784047,-0.8762170801821999,2.0237909697261904,-1.2900626020495323,0.8479351808947266
-1.476769897824781,-0.9708318053952317,-1.2497243980844943,1.2985540651867424,-0.8339225837907684,-1.2089841804236177,-1.5176096262593384,-1.5441550823948615
1.8907941659194218,1.0928251387328343,-1.0423840711744816,1.2251480981129794,-0.31719412119232276,-0.123230895943783,0.0012540850711686322,0.07931274179518397
-0.17302095795652164,-1.2271525318934262,1.1219532290332963,0.17106394571535136,0.6812780726541126,-0.133112145312896,1.223683875404569,-0.6654025092323391
-1.756399592938519,-0.6100518233303427,-0.08927015424657916,-0.1567647326621296,-0.1579300444930847,0.5525698898171569,-2.0300030804723317,-0.31732947937749245
1.6219356869509645,-0.2371368703299542,1.1322041739420605,-1.0482008852353222,1.0854097551988597,-1.0459623985810995,0.5269200952595707,0.41113906419832935
0.29168689436951867,-0.4662418514320792,0.1794509662554333,-0.5333031957753991,1.795576239542824,0.3420310350438064,-0.18291056362628336,-0.25041150962395053
-1.6610095036031733,0.09516791789638322,0.5889537499291183,0.469114427923528,0.5638680162323394,2.093430519340622,-0.47206419435477504,0.037027226066770495
-1.7597389720572425,0.06157902477244154,1.842459712892028,-0.9745703116526563,0.29870555731146936,-1.0499695798952218,-0.46162599850675606,1.4358217583932262
-0.6268234787405571,1.456423067358012,1.1688882741886597,1.094474539937336,-0.021801322557060895,1.3251742072393524,-2.493752482452598,-0.05784525048395309
-0.025720350107778008,0.3711641301336437,1.900969563786917,1.112438412373369,0.8520286307901607,-0.6997803785213765,-0.9653192766276357,-0.458097658383886
0.05321721566914834,0.2897322543443783,-0.5571165428652974,-1.149748559028995,0.5960308843349601,2.000007020501809,0.39676456534861715,-0.8259621853738206
1.198563296467693,-0.21902908769095844,0.3647209283862506,1.058795881156867,-0.45230302709999054,0.4115031734648486,-0.2782524777724198,-0.12252708397460925
-0.8764245902785263,0.5575545098576149,-0.08052936003156635,0.2317199053694444,-0.041389866823367955,-0.49879080605020354,-1.4828651775764818,-2.6997945608253286
1.4725358463427605,-0.05688752311447253,1.4225436518012393,0.05830978509256764,-0.1985674574326336,-1.4000482586180376,-0.4487012769635216,-1.2744193928042293
1.4110120189194253,-0.34135399860621374,0.7877929132702465,-0.14225253613476585,1.2734139503066144,-0.06277530967155617,-0.9319150786519642,0.1952299277904323
-0.8780743751521856,1.9066325967959907,-0.4526887875952451,0.20114079243931793,0.19255392182178246,1.1562492319567372,0.9103688438606276,-2.001966279163867
0.7161159952921029,-0.19664358111654107,1.1213592086850075,-1.2396722045485467,-1.681020130403241,-0.6817849116536346,0.7535347411645896,0.5299992307696993
2.0342049362985564,-0.2863722488691231,-0.44324922015581236,-0.4166838615753277,0.593047342437677,-0.3686242535686898,-0.502452087621899,-0.5932997956014356
1.7718912337711548,0.05526618087931576,-0.24869181494260764,0.36300075338055926,-0.5797030955712417,-0.6064916866086392,0.395072240296102,0.3834607203374557
0.5689503317704441,0.8992470525165485,-0.0750240904102566,1.7614261924906323,0.589445123082201,0.7117228974032241,0.03554142628203271,1.7971500694947111
-0.9623763646468765,0.10392070572950939,-1.0284335462780194,-0.07219509301339334,0.5149075472866816,3.5515074062504084,0.02612428185426672,0.13868018426165774
1.343595108870391,1.2693800065056107,-0.0132305974599038,0.11660447259528253,0.47789831313276265,-1.257335216326493,0.08319046382029638,1.3184530550668727
-0.47829974972236655,-0.7654222957332244,-0.7244556153956545,-1.362304670679807,-0.9420090456420105,0.3479798175449813,-2.134051224744037,0.6686270292363574
0.0037090698486275287,-1.655155536506009,0.37104503882643547,-0.459884803032473,0.6725072540747739,0.09739491636903032,2.211173184992575,-0.15870505597588025
0.019727232877778764,0.8774784642154703,-1.7959505182849032,-0.7162074772306302,-1.0864048358179577,-0.5440154718971778,-1.344424416600192,-1.3501847044189843
-0.8941427757024603,1.6599357863019262,0.26570819400894363,-0.6117036284965087,-0.45127858146576805,0.47169628169432576,-0.24832414768110211,-1.4167268601880287
0.2958342117502774,0.7323772200360705,-1.076918391373151,0.9830923298684443,-0.1181536429550379,0.8046441572658698,-1.0028435655867314,-0.8499627192277524
-1.4087722813546,-1.6002897046074522,-0.2492273570950415,-1.4821092652033585,-2.08259393894803,-0.027338125742951275,-1.2801399649975356,0.4699309511501442
-0.5800607051279623,-0.9420810693160557,0.3370938070516431,1.0164057454702946,-0.07084138561295639,1.427756628362902,0.011957635161420484,-0.8688930782505998
-0.2722952759797056,0.3492230554004723,1.5347562202171252,0.2808079403507173,1.4564292685639848,-0.0838536856942938,-0.3048624977135693,0.14605614052522603
-2.2086468234487997,2.33661403523787,-0.2652122699647303,-0.7111323481768547,0.9312110690698939,-1.1328102569640988,-0.6171126693175936,-1.6767494718227498
0.4850854127873194,-0.32796326413590626,0.2818924770658221,-1.113184346857453,-0.9762064391514502,0.4715085766383017,-0.8259923187796285,0.4274466399891325
-1.6249466547136133,0.24093028628356855,-1.0522441746225788,0.6108077713088554,1.805185013435293,-0.5877928293598287,0.8799314698645636,0.14219854909492688
1.4552863681349753,-0.38011019725615874,-1.7634601595170025,1.0233685815661913,0.16103382422151433,1.8824226024748236,0.356014858052209,1.3337058037036065
0.47572103507870916,0.15462791754802732,-1.0931509777390664,-0.8764103480273308,-0.38867696258876017,0.4538939623095397,1.3784882588892218,-0.6605132161530753
0.8512240014038096,0.39237648815823944,0.48759802293920673,0.4220983537611774,-1.3464223058791447,0.392571528806937,-0.6203646517129957,0.21027898002950904
0.7931718452721379,-0.09315218148609841,-1.5292863258255005,0.6350812377759146,0.6978291279457169,-1.5493221473140626,-1.537276061060486,0.23205278520744765
0.4005768933264416,-0.23748115133793654,0.5561717637617697,-1.3379087650003365,-0.3863228197532932,1.9716074802110166,-0.29000402530690333,-0.5499525319394991
0.5051049200579779,-0.264824788256857,0.03189378036421225,0.06382425110195562,1.5196196193676856,-0.7752961331684525,-0.24068439703248928,0.6780768782747121
-1.2144909235258816,1.2863300510924784,1.2796435804362862,1.0014922534534971,1.495805748474877,0.642009639799634,0.7020439878994079,0.7178751807602081
-0.02759232582592732,0.3565401527555077,-0.22535638063833577,0.3503794294612069,-0.6200858795022606,0.4282331861131653,2.183469960990202,-0.9751830729527194
0.8657524463857458,-0.9715724661978766,1.1382718003136307,0.05004510424681213,0.18268329533370606,0.9537277077700536,1.6215662970092635,-0.1479162342671446
0.6204102081083235,-0.6800474410455964,-0.7490620203635538,0.24179551661745605,-0.08712124361943631,-0.6736078959105823,-1.1936826320228107,-0.8345160278147313
0.15063717204723084,-0.7744950652002236,-1.319765894745293,0.713160345263907,0.4416779296835396,-1.2454606072267338,0.518514922187304,-0.0072888952726686265
0.9400643455564357,-0.08143186565679221,-0.23167676438114082,-0.3460352743889321,0.971827197741797,-0.02741619764239171,-0.4642929639102991,-1.2695179163221018
1.0725184640876193,1.1714217595090604,1.164791938383176,0.3519318490825466,-3.200020790777531,0.5448326307477197,1.9439158366844842,-1.2881033621273845
0.11412638973251994,-0.8664332338905834,0.8519516135357605,-2.1892687640322435,-0.16425592735812816,1.2626963625814158,0.11092344264626547,-0.6908143438510614
-0.4312546252458887,-1.026530215211744,-0.10197453252035817,1.3929374047309089,-1.042706544957068,-1.4480162697528496,0.2687532040143226,0.7679679090973252
-2.7659021647466115,0.9755758271581313,-0.061029137610311264,0.04408021119094425,-1.5918188364105643,1.541690000794373,2.6057036359542103,-1.3674227211086811
0.3812781878365736,0.3637990848893843,-0.9425081803418298,0.3039377222679455,0.8274167323128986,-1.2134413616710449,-0.7763023891030779,0.6930286571722163
-0.39592961865057824,-0.3414191726508063,-2.622256539505754,-0.5861833964147299,-0.04351895543014736,0.27983329065350565,-0.3791651521447664,-1.2778771491204546
1.000004162764877,0.3902003659794981,-0.1284185598151681,-1.7963998388454487,-1.0483846835183994,-0.1749949737724495,-0.27913734023368814,-0.1395368431207142
-1.5077782439821072,-0.12044031808366398,1.7305554242247163,0.3122050325835426,-1.0963801956603625,-0.06255196883059141,-0.16370944147619718,0.21129191999266447
0.03180904235431703,0.47751547611112194,1.2652332053982989,-0.12369860167278277,-0.0037274653585742824,1.5129870916182488,-0.8001056806777934,-0.9734985820225679
-1.2383712014641406,0.16942797219761502,-0.6738300694509894,0.38916362463850573,0.4222745526786311,-0.871145552429213,0.513015788777379,-0.7055475097670469
0.0869987423654581,0.3482782612915753,1.2641991148335845,0.3607319648839076,-2.3773900020601766,-0.9364139165782164,-0.37082836080938864,1.0715029517506114
-0.3414473914304866,-0.5325594289008371,0.2839258613177609,-0.1958233391685297,-0.12130363900754097,-0.912715084205383,-0.3607523917070101,0.5655753404607369
2.735051886983922,-0.7908931316097373,-1.8181007330384038,0.3292943039269566,-0.3167605635535767,2.2293127426050297,-0.518783510488087,0.36683845563542944
-0.4374389732929343,-0.3579920182522233,-1.4609317192557398,0.5388302907944671,0.16949652230729323,1.612927668330802,0.007583594892395074,-1.0742952902604972
2.0327828637402594,-0.43503095709851924,0.23435584847599158,0.16275726347205113,-1.5616292469457709,1.1873735942612846,-0.9426187772033342,-2.2989846464050365
0.10336655264504156,-0.44660234183510594,0.016670775322548455,-1.346520081824345,1.4155466415616123,1.306442512071163,0.2564268747680694,0.1447440432813258
0.8961303228764077,-0.2340549275050103,-1.464571898337489,-0.21039439250020175,1.026843126805307,1.4076489011226305,-1.410406986039198,0.35989952350536963
0.7477561527639928,-0.37461661128034635,0.037451168996938074,1.2334831526682868,0.48416701435702797,0.25356012958081764,-0.3021009973442866,0.6819055623839995
0.5487572689515975,0.03126368208652264,-0.37669452749115045,1.593607579036706,-0.09312291833303941,0.8516463800641703,0.3919833253686573,1.5491170039254356
-1.0167905137236457,1.7917756742355921,-0.5078251716693651,-0.9583391988033932,1.874376431361732,-0.5900848181222768,-1.2277275399073608,-0.3307018100804395
-0.5912004073858131,-1.0862314411279212,-1.7306318537747662,1.038427335748824,0.15605068449645793,-1.8750598880642328,0.20728182146628976,0.4843306942915421
-0.6659517893485719,-0.758150589006953,0.18292880729639358,-0.013494616770939492,-1.4056411010231122,1.1357591057471366,-0.7187195909697508,0.2172601989546304
0.16904537348781265,-1.3337509476374807,-0.9464220783511841,-0.05014980273633161,0.3584059222996155,0.06972991551141842,-0.6366971219802701,-0.6948141259407722
0.09669758841444892,-0.08603423500155147,-0.18335498554255766,0.2456707639159117,1.4635393622815587,0.8215707197785119,0.6032048840313682,-1.6936536791899692
1.8427331652978405,0.8649968671210916,-0.8103868019137146,-1.4944273320559354,0.1936410606996621,1.5944264345127517,-0.1120229257951681,0.23924883664480923
-1.5210809840042832,1.238032351196226,-0.33651443407410686,1.835590330421549,-0.7376909518261531,-0.6887264032369039,-0.3907970838998006,0.32536204981237304
-0.9304772918915442,-0.46910640213193777,-0.7639194106221554,-0.9033875769568299,0.6914190489013846,1.0456328725283262,-0.695238290910315,0.8892827486527837
-0.8751637647148194,-0.2740804652439417,-1.1278229770678059,0.9507788606733499,-0.19929049520566147,-1.6624414646062782,1.2798518725979549,-1.7049007103214864
0.1098480080099508,2.226713662614489,-0.5249199374214625,0.8880646978058764,-0.5767187356656546,1.704097491815278,-1.9867134627065943,-1.5301230361246376
0.32184653672245706,0.7443041692504472,-1.0489629820166142,0.6360429230195802,-0.06923826148490328,-0.23862476361891277,0.31431169974702255,-2.3060607643458972
-1.718031623489828,-0.6972710624185635,0.11074256923329509,0.5953385753342488,-0.09950408598116514,-0.8911449083526949,1.621681971861833,0.5105938761216391
0.5309059707806426,-0.4873285400532918,1.3192559939816888,0.9876995815011057,-0.040313192342682144,-1.0814967188640259,0.2501945229391485,-0.7481645624436905
-0.06253395383563998,-0.4125711565627978,1.074562488460491,1.1007149951570023,-0.9812907584117347,-0.1374076131681148,2.075281998819619,-0.0568259007884183
0.5630568781707598,-0.6334017331536679,-1.2041507950646546,1.2837077361380318,-0.23299288273882926,0.08414000740819606,-0.16819698875945827,-0.32662582462567824
-2.11517411712975,-0.23303041559978435,0.18533213594370626,-2.598770660139301,1.6855381177624265,-0.9016559667995101,0.10683524997369859,-1.5613873798032387
-0.9983624646203004,-0.008976194309855409,0.7618180903353672,-1.1213753444106551,-0.7570559568856574,-1.928280878569983,-0.33928399325962755,-0.11056349928020479
-0.7782888555939054,1.215304747219265,-0.8839638207670344,0.10166179097167743,-0.031081929634992764,-0.2514183162227229,1.432191460344513,-0.2374320524427514
0.8212158215393601,0.5133066768497424,-0.4271771558630458,-1.3431746136421696,0.8116085775950975,1.35604637500176,0.7123118206580829,-0.3682221597365057
1.5219019161152103,-0.5289739845942151,-0.12371900853756698,-1.2078251652267349,-1.6923515149665975,-0.1121045074011701,-2.057258130453226,-0.04309250161241083
0.11868164945065703,1.532932525780279,-0.984361529424267,1.297846498778609,-0.27502190723870473,1.1381064878428793,-0.7779067684630457,-1.309471831071172
1.7129238378227298,0.40087302314956463,0.896187685560477,-1.2244697207529893,-0.47372512892607854,1.45201500333444,-0.5972417677556623,0.6951282998728928
-0.5322001670903262,1.0924360734802299,-0.8273649023760414,-0.46688789902005284,1.2428489912284155,2.039680131981026,-0.5158008908038362,0.574293124640707
-1.09335214643983,-1.2201752749755508,-1.3965754767601584,-0.8799750053407713,0.3663969606003201,1.0339170299783291,-0.7007046430049133,0.380250317023179
0.8037601041180426,-0.17787228716899636,0.3103607410783661,-1.1228984145295196,-0.3076927434164411,0.9299832336647944,-1.1479240042647394,0.8272801007683858
0.6111835787283366,-0.2875573206837908,0.6242582349747526,-0.3617144601434215,0.6622382744821782,-0.21036011938112742,-1.8112771419963818,1.6270894838389753
0.7195252481227623,-0.214166984063948,-0.919168612996959,0.2300991737509333,0.14565936970490165,0.886301542418846,-0.09201940620936311,-0.8411730936677904
0.8394271690450023,-2.069801299886096,-1.2642949657513234,0.9069839818463954,-1.0986929525118105,0.8484027295718136,-0.8226890139359535,1.2334848111795584
1.028430644564796,-0.1980062957550513,-1.1038413790354678,0.5475989744418137,2.6526494790257495,-1.0381303470244474,1.005129360214079,0.14529537263694323
-0.3513737124670754,0.05151286967356301,1.552889366486867,0.9731583994854325,-0.30300602464861415,1.2049176435633107,-1.1626131111553797,0.01644350273895897
0.1502808293838602,-0.03433436525093521,0.7675097218489677,-0.059102665179288916,0.01314268532744374,0.813690736543293,0.6902342111482554,-0.9858961616159456
-2.1466509786823913,-0.42626859383112614,-0.08322764122537717,0.8392023877738699,-0.49108348135580543,0.21886177250225466,0.18546086783337526,-1.00092196533842
-0.687094171547763,-1.2883097665869179,-1.640133023100266,-0.9588343592733842,-1.0449989198429896,0.5506304603807857,3.045743967902885,1.3620697612100796
-0.7283522235561448,-0.030704439826475853,-0.7907887309125515,0.23785259365849376,-1.214356847459412,0.9541116862372183,0.2500138387802739,-1.1192784699815965
-1.6054684924505036,-1.1362677060604631,-1.04649851740281,1.6174145523359051,1.9108328255756544,1.5261209995825835,0.5320000090901497,1.7827137015144763
1.078359616710996,-1.404429422370357,-1.543980729002732,0.38706646208673495,-0.5143391015432826,0.4112965140557636,0.8842087906149529,-0.1552886240622301
0.7149086395906444,-1.1556248534026163,-0.7319311668635804,-1.0539230907457509,0.5609876845684495,-0.05094251304978354,0.3647386925104184,-1.3371814595812095
1.6508380594620098,-0.7912203319356588,1.6230793229528169,0.4095194054942651,0.3760997712274193,-0.7661660981277466,0.42878668861443514,0.04171721414495802
-0.13193287126418834,-0.6187657261502447,0.8500337931648739,-1.2869663210834894,-0.2041508866290387,0.32503207098361186,0.24611201554295434,0.7367450221006738
0.10032983032535646,-0.2141503773984042,-0.05356180281108305,0.6149114690620082,0.6363405613112326,-1.597599135565857,0.7461266573503125,1.0325570017293884
-1.208924005134293,-2.1245828182379936,0.005946449602932302,1.9148248998148072,0.22498070964902403,0.150542802229962,-1.1994893817970278,1.0652641140517096
0.6092914416705408,2.0310777047736046,-0.1408184926743709,-0.7836874820598172,1.3310329672290215,-0.792842127424183,0.23409867796315165,-0.670134203767055
-0.03255472450100749,-1.1612739006786108,-0.8870359900016926,0.5732141145200694,-2.5360615522752914,0.48465579836409384,0.17540607509430095,2.244565943527962
-0.6703214872534029,-0.026897376861548417,-1.5237462436145326,2.104571759616495,0.04711002873842216,-0.38988420101743015,0.423751312590769,0.12971523433307539
0.7777587593972104,-1.1742626190597427,-0.024458652105187287,0.721929348009671,-1.270010510178766,-0.7949764457298755,-1.627111175258667,-0.6345311965122143
0.3475041428268405,-1.156972947434368,-0.9539887377017966,0.936684580146562,-1.222149240352586,0.8888620353246369,0.6121059258072,0.2962136883036384
-1.1310891565720274,-0.07309507584716277,0.5459679599492632,0.6535727970347254,1.2225117361654745,-1.1706517382834483,0.27570694475166035,-0.21399946404665435
-0.10608646691507305,0.0995965543575719,1.009220919149239,-0.5717194595619668,0.392369285975606,-1.795782633973628,-1.0145182321141029,-1.1657953769920169
1.1303991432280396,-0.48494675043990465,-0.6056255419764156,-0.09092861686805519,-0.36426806050074884,-0.4946919791169785,-0.8597013134669538,0.13514424062829875
0.25109183288906445,-0.2591619382083012,0.08301700480636576,-0.6624276918393796,0.4729007510306073,-0.802495331683476,-0.3095226935217479,-0.5581912344606662
0.5195164775742447,0.21378255352737435,-0.01882716071491766,0.3275687492828581,0.8015499977415904,-0.6600665279546418,-0.499677475768397,-0.046334671145467576
-1.4149416378508062,2.47935415889747,-3.4368380593432835,1.8700620781126613,1.4757365090919634,-2.1734302251491013,-1.288665602085813,1.238376527306779
1.0139555315459754,-0.14690376995166704,1.2390814871252018,-1.318157505491346,-0.9920252744972992,-0.377412984148282,0.38038741135141957,2.5441507889415775
1.7675039314198182,-1.7649182271393866,0.0716446044685621,-1.4051570889902045,-1.6222306789589767,-1.9135489981124796,-1.084975390575653,-0.1158655800532481
-1.1544729315715665,0.8401117755826049,0.2809607774732577,-0.3894878705059778,0.381751769966505,0.1651965332652787,0.9944044082613679,-0.3140986352521556
1.005492321945335,0.46276206861253394,0.532261858214977,0.49259764712154763,-0.9421265128196615,2.414880312201735,1.3280113955279416,-0.38038290276002473
-0.21831261853648362,0.2481461860850477,0.041314563520801414,0.5027076569600981,-0.4448269523051234,0.1589701574695818,-0.00467118210366904,-1.424705471233929
2.8745439338042202,-0.47072689395946127,-0.9206614474021892,-0.9113809401901128,-0.3054236263260726,-0.03583402645372786,-0.1272969299421984,1.3755105177763103
1.4323068364334561,-0.32519362404253044,-0.5836606380606449,-0.9725871979559052,-1.0728116852206295,1.8233196449968034,0.009826590272844434,-1.1116442129233566
0.8416251555093451,-1.5693688171589666,0.1388860795066188,-1.7461769787200787,-0.3437441160777708,-0.24477523644891488,-1.248853395189211,-0.6080891723618861
-1.8216404044319146,0.8894076260301705,-0.16114668819840755,-1.0891233268266203,-1.3232347971335816,-1.3427128041887268,-1.0402360614256738,-1.350566104513132
-0.17274349258546198,-0.406531240052936,1.092299456232515,1.0587596358328881,0.9455612878776771,-0.22746251939184678,-0.5605559655518151,2.496636928641958
-0.31445496500148074,-0.14574286938668538,0.3437544504371209,0.37564629487496076,-0.455239774203764,-2.0453546114879924,-0.3626271487282355,-0.45386867023031585
-0.35907475929181387,0.7964476028791309,-1.1669076253371828,0.48172324851429726,0.7472858649900807,0.5593490168949788,0.19269719810404262,-0.45835043032525724
0.07016541033389152,-0.05961288107631957,1.1157553266324625,-0.09337934451344412,1.9271810557087223,-0.8281730370951031,-0.46124448496778414,-0.5276041574751245
-1.5999436736069144,0.501978977234316,-0.4634485882965142,-1.556805768501508,-0.971200273081558,-0.4976333807458157,-1.9521680716384116,0.5142956116161488
0.7473681031642838,0.3500839248418646,-1.580667239039379,-0.7679167024718512,2.0114027437772988,0.28630060197131296,-0.6308623248257373,-1.641067899191412
0.5426874202930126,-1.7001504918605663,0.6771276863756518,2.451536351809558,0.28604706068546065,1.455704614358806,2.005041538292132,-0.3229002221337982
-0.7427670869699672,0.9902437270207276,-0.4413225572543394,1.3018555852798026,0.5342256480450319,-0.6747427299862245,-0.9639063514903304,0.9652313416238816
1.3374282964619952,-1.070614240372389,-0.9151968129343513,-0.779509412946601,1.2472573197644865,0.9239531577242734,-0.18909443711793802,-0.2675696875865028
-0.7218908345669505,0.7932135909897577,0.2044228212186731,-1.1911809466338108,0.6561017378676914,1.6692089230663567,1.1635316104477562,0.24524180430766812
0.14403064966010784,1.4743014612067276,0.850466062299507,0.7431422480656514,-0.2684487240528416,-0.9611083769448201,0.7805188002613132,0.9886938400864599
1.3053249552116388,-1.0344635611519073,-0.14014293502205752,2.5078077870584816,0.4403142863380991,-0.573491076016203,-1.0022378922090827,-0.6813222157983873
-0.6886479770000459,0.14354720587587239,-0.16360354097614443,-0.10058931550744318,1.358705176466583,1.282207752581818,-0.4533038662859117,1.6821492086687462
-0.5785312520107389,-0.14315651121254896,-1.5850315139229847,1.6703902933807502,-0.9450132400030783,0.11265761250279362,1.4630217104322831,-1.7276765455145713
-0.6831790256302904,-1.291144904055625,-1.6382798682156559,-0.2968150497602774,-0.551759018826853,0.7911937449141251,-0.757274068008215,1.1355050292877993
0.10861791372090916,1.4036884554069604,0.2928430080237881,-0.41983989987392945,-0.47346211899014284,-0.2055532130221957,0.9307174065513159,-1.1314305152384294
0.1962223523962066,-2.295942570725907,0.05615871607406337,0.21405968715249185,-0.5392845923392107,-2.8102792388771363,0.04983046399822059,-0.31896605759088714
-1.3514359853566178,0.33869064712075386,0.6011492223437013,1.0309820058395587,1.5905647333267015,1.3272023219067304,-0.2579014758061969,0.425044692418521
-0.4742769072302187,1.9323644224580017,-0.4732915530632121,-1.1069264823686662,0.2070405456792034,-0.30475644363617305,-1.732961192736673,-0.10695221742371311
1.4983211867974398,-1.4653149947895867,-0.905393602702153,0.9443828144665986,-0.05630119527988158,-0.4406553003551348,-0.7151226803389369,-0.5940953477004048
0.029106118422299106,-0.19452788643736696,0.17166530311958902,0.3198360834411422,0.8614351530057983,-1.0072983274769702,-0.7868127129658153,-0.1902159427703075
-1.8626280637521135,-0.5044112103605235,0.3101798017933448,-0.4329352143248604,-2.2984704120511785,-0.22737863963814947,-0.204868158433111,-0.14392363402305516
-0.841233447498389,-0.007433400987093888,2.00610829157702,1.002081999921116,1.3832520080891875,-1.1820191898246737,2.1213115619545446,0.7781637097176963
-0.7715782501074882,-0.048338762541541486,-0.283793943478895,-0.666839648027657,0.3307616679896715,-0.962752313021167,1.8177954382209205,0.619747758614723
-1.9404812475783948,-1.3114987067149118,-1.0179322932859491,-0.1415269577298328,1.683893205903899,0.13380586224188298,-0.7584949065021317,1.3806990046308447
1.0153970567211839,1.2062048700879373,-0.7000024925101449,0.09663628662646985,-0.61773858300563,0.7185952152388478,1.2627922354607044,-1.3019712331893143
-0.48169534929601027,-0.17042010308055944,1.443653265224495,0.7225845426113789,-0.37657099109668585,0.7915054860481672,1.3025687467350509,0.5838366656306566
0.1340631095696182,-0.48553773510722903,-0.7600828611474915,1.3228683093128106,0.7694657424305104,-2.664064080050614,2.1955191648173105,-0.19652029917332242
-2.215670255748636,0.5342607986160541,-0.5304149668162719,-0.17572028588251049,0.9301027167174477,1.287093219308474,-0.21022464710612887,2.57518188614106
0.6091328018192734,-0.9985707116206555,0.5814645008508371,-1.2261503167998433,-0.09912642920839641,0.278408203770085,0.05000553040339468,-0.3070208985916572
-0.3602265490188101,-0.6272594883729699,0.07567295397438178,0.8042480423889127,-1.1086465055348123,0.7542238258941413,-0.008280190522462804,-1.7610439441476817
0.8165490908538816,1.6805047907332353,-2.0544618738765887,0.2904679724962404,0.9141666238228927,1.0571052286504985,-0.27352776874786505,0.1452981333276087
1.663009941311029,1.0305389079681542,0.6278147030756674,0.11562758768134104,-0.5619338322239144,0.5279721262331968,-0.11637705936288646,-1.1663946211027285
0.04266313606547665,0.295519075897404,1.0222133790281434,0.10414628148222826,0.7010961025784023,0.6184642791104363,-0.3061657085758023,-0.27151014542349894
-1.6505784879658918,-0.433648103529953,-1.4744885286061045,-0.2028218885179109,-0.24628688823319028,-0.9699365474412207,-0.9321731758511227,-0.27559617247582674
1.6182928158063066,-0.9997922587537365,2.009863942541815,-0.4720504890611097,-0.4034669234676579,0.4278402442756315,1.447200603169252,1.86854957848332
0.4490988788402713,0.15189424295953824,-0.8726545372048091,0.027162465644812953,-1.9451522698610038,0.6031061677986586,0.13841383151344153,0.5659134588559178
0.7443924159352577,-0.6547036326286634,0.5332103318024591,-0.8124524491341344,-0.6103938399229175,-1.414630939091048,1.74956605075374,-1.3982622442165418
0.22408409158924683,0.30194639252868455,-0.16151159135769144,-1.331289642101435,-0.9491182354541384,-0.5595814075914198,-1.02053270898502,1.9305866378370065
0.6471176152127436,0.513089252736066,-0.6804878700296364,-1.4449103041813078,0.1062336658308806,-0.2625858112191413,-1.492725054278201,0.2650577734241766
0.4188158458614269,0.40475393205677673,0.9664385428689652,-0.22673610068642666,-0.2943814683639595,1.4388044012386279,-0.6409766410144447,0.621709322731716
-1.7146837110441848,-0.4843081340508475,-1.2359429476223645,0.2918257123924431,-0.18439228900843319,0.3164404332783164,0.22538561255634845,0.08938890434298566
-0.06557265370401308,1.6351271837633212,0.09014486832133271,0.33667526326161157,-1.4744979503755724,0.19101505079487377,-0.6562265562688363,0.6463277852873003
-0.2007902631198687,0.6680028286163361,0.8174025151286121,-1.0628231440263434,-1.5878492531199166,-0.9055352462024524,-1.1325760226337933,0.9171474216949034
-0.3825821512138666,-0.869291474144369,1.027907952137721,1.075101580159135,-0.5932451519455741,-0.3278081281777745,-0.2602674682460728,0.6333242707538126
-0.7631081581911999,0.8128967570173251,-0.7171436804542635,-0.7400971664153793,-0.2945045667322407,-0.3153123462344559,1.182246760563079,0.13562689818255894
0.5302725352300028,0.17159898597243634,-1.0621130779442396,0.8601549493819348,-1.8974244493850267,-0.8411679578103284,-1.5178658002694334,0.23227909803254418
-0.07262967118474398,-1.8252434709823886,1.6408846842878237,-1.7695879449113923,0.07585198325087134,-1.4265976466891237,0.18373922828523964,1.281380657340207
-0.9376842641928477,-0.0008759239497127202,-0.671929067604449,0.7883134322439093,-0.0524749492338006,-1.4136649792650142,0.4344936838681243,0.6795582963231889
-0.3195008440110926,-0.38766394260400716,0.1439176384526185,0.47149947657678504,-1.5226423573239312,0.035479827664326766,0.6270898122969168,0.31520005255310074
-0.7771308314377463,-1.1827937353546443,-0.11652266231287454,-0.8086288005835165,1.40679482847615,-0.7117838123656397,-0.5277524472824285,0.4124997016255431
0.24939967526497892,-0.10869698462959472,0.856276711344343,0.4420672970292279,-1.3716362729139295,0.8648268185309311,0.05146121320850557,2.0230984657877387
1.2043925626647898,-1.2377079044920793,-2.020920514982413,-0.5741590979634646,-0.09389133759504928,-0.3370037598762487,0.6997048565239634,-0.41416150344936775
0.548273489188109,2.6306279690296455,1.1787567524370166,1.0388442298037377,-0.8796263895126323,-0.4649179422110662,0.8167949840209306,2.0052589763711492
1.292157698717936,0.15820612931264308,-0.8195942829749754,0.4403719707581483,-0.7727206344590689,0.050998887512164526,1.7660076246473129,-0.5379322312381557
1.135327183860942,0.026963873083640337,-0.5482939866598157,1.2975275973957412,0.3432703957698495,-0.6392882065923139,-1.1086151000777154,0.23154435680978025
1.0956015172899305,0.2953158804389777,-2.0770424398493565,1.1516805890376107,-0.06044986956802594,-1.1864853381809115,0.5819057320453724,-1.3659425810120815
-1.1659593916298165,-1.8333524207161027,-0.22897966192315292,-0.01332877438312022,-0.04553705526963969,-0.12185984112582318,0.2733332656187946,-0.6081514069824423
0.12439927311171466,-0.4967586452522165,1.1889723296559975,-0.8245652205704183,-1.5851371942599506,-1.2484664429526755,1.2910027388606455,0.6820940878180568
-0.632811544838243,-0.15078292963056691,1.7028476155823866,0.41021273673858555,-1.2415561836729803,-1.3199758809532764,-0.3714564999381602,0.42611863480100326
-0.7927821409114242,0.022348284472087594,0.8551514397600435,1.0770667973899575,-0.16651963935868322,0.4554528154082831,-1.384226424745724,1.362759165105212
-0.948540346889282,0.7701636815407727,0.29138853301033885,-0.5996671214727443,-0.44265893414479807,2.405753769001209,-0.5952986453369646,-0.39005874202597596
-1.6786356703640148,-0.6587534937551526,-0.144600014019035,1.9901187043510553,-0.9695465323411099,-1.319286414886224,1.391793926600032,0.529250923097213
0.33384679339630136,0.64524974374728,-2.269992606186752,-0.13725410307149602,-0.6980571576645935,-0.13455727021978647,-0.3146915153119378,-0.5907110722996812
-1.5048669850551963,1.1254703457377662,2.6403259763052844,-0.7200320915956405,0.2536295538883116,0.2202433179653059,0.019890390430483747,-1.0399923483972031
-0.975366438931263,-1.0661627966938294,1.323477429469362,1.3117033008581034,1.2187687769646294,0.10991116028527712,-1.0654172416006196,-1.533349912682751
-1.3589808361094187,0.5057101167993876,-1.305497238779759,-0.06656187573925175,0.5602977379139419,1.005459485990184,1.1771414105649973,-0.15791689828167704
0.6702118071468975,1.0725875572485708,0.5022522701691643,0.5197724663071734,0.126569304914238,-0.2811644364081338,-0.2761516971505261,0.46115521463446274
0.28419383094929546,-1.2563199955952278,-0.3177603229455184,-0.17533070038278414,0.8058556320837017,0.3635621787576284,-3.680723621160592,1.100797829312786
1.106502140965555,-0.6841942845943565,-0.809978464798984,-0.26581238148469843,0.029199080578369622,-0.462388918962365,-0.23049444841338718,1.2060086516778932
-0.12727999692440622,-0.013515793045940899,1.431784883083931,0.014802385332115506,0.46898000423507186,0.7741666087949151,0.34359385422460686,-0.11993224325867421
-0.31698468195525753,1.450557292055754,0.18072532332301147,-1.8672576194789212,-0.23330218491432386,0.3559979388595919,0.29560851642247116,0.794619957206757
-0.5226480578553148,0.3717095710349754,-0.540100621032148,0.5045703967278705,-0.599571382330436,1.5905135019329095,-1.2145545955180719,0.46708372474191395
0.7532982709226291,-1.183885511444628,-0.39080366400058925,-0.19863210541972195,0.08779435093632984,-0.01555074213126557,-0.32598026759087895,0.30842934378746084
0.5544825634925654,0.49661160543367794,-0.9079331111483598,-0.1591844781943445,0.09340377729880017,-0.03319760930612567,-1.2567103982545018,0.8274016955736964
0.7205019041689775,-0.608113619959638,-1.3145102866088485,0.4109127888084749,0.9929340961311764,-0.8443060197178783,-0.35198869305978653,-0.9017485884232439
0.787220449469499,-0.41448090622136485,0.8537626238095186,-0.22571579705225053,0.24973506940452397,-0.09737452881131224,0.40337523924606106,-0.6703144374849427
-0.40994182776010735,0.18585080418988978,-0.14523339928790016,2.488555574969765,0.15785494788693352,0.9874857708169291,-0.009697605397258061,-0.10891271896929618
-0.422378575972804,-0.04109554624909923,-0.0428776836587754,0.638039126093677,-1.0155406465526668,-1.0554439540693532,-0.8964871944719325,0.2623754954759467
-0.7817396326874259,0.8397135401653346,-0.6676753942455254,-2.3416519769425963,-0.2519506404957161,0.009944207820432581,0.3542713363048622,1.202759900425461
0.07145438840427411,-0.4755763627712632,1.4178188155583897,0.034242720715515325,-0.7481535512903769,-0.4691700900057271,0.7440468020045341,-1.916984719069121
0.533785986067788,0.5721880741071791,0.07247322277238377,-0.25760387520134326,-1.6092337306731257,-0.8034869049054094,-0.5708034749152517,0.4267510481063671
-1.4048255706874488,0.15200524898844706,0.2586378889088506,0.6698051921459588,-1.1547625797028225,-0.26509639810841285,-0.4384692040755305,0.37709317565462236
0.34562662254288046,0.48984694749615443,0.13987684447786689,-1.7619039440741,-1.8830909711000925,0.9405906009643332,-0.8284515864538498,2.2819953069911967
0.8209001545095607,-1.790397014878455,-1.215932659145873,0.25432557782195714,0.8656304073077307,-0.03887225593934927,1.603911197372636,-0.7257022518995953
0.29242077004601924,0.816149701937328,-1.489505528217431,-0.5711349754067095,0.9270186573469125,0.4506500691239309,0.6650160218054871,-1.1456847105514083
-0.7423442976828801,0.01403465947391167,0.706876410622238,-1.5751490487991788,-0.664393654453178,-0.996170059768361,0.3488963699643059,-0.4927759981422302
0.41029073825987705,-0.37024478585232157,0.3466941191518374,-0.29392391891687736,1.6773308136777623,-2.270792788876507,0.5393147311180851,-0.34710621668147607
-0.6259895576211608,-0.7409300975778746,0.3387175921859277,0.6632795006723184,0.3889997826549307,-0.7042469697878259,-1.1199505255436026,0.7652700576408396
-0.44508868525509876,0.1189025425194613,-0.06643129980234372,1.0952265658734912,-0.22420758825539186,0.6513772958083657,1.4456600355138778,-0.8955595852488795
-0.22250221254330668,0.22913206270070396,0.23490166190518627,-0.5192379460210474,-0.04339398168145755,1.2516014471595063,0.019958170976341897,0.3348279724794736
2.337830154698575,1.0044743637846636,-1.229322696023219,0.049301986830662406,-1.8172305178674582,1.4931534197982301,0.12298679358703343,-0.2895264865957672
0.40894002848970007,0.37849859784254397,1.1542576713745543,0.42306472307261755,-0.11767461832287657,-0.07581730084551448,-0.1164610155204214,-0.056881402429014745
0.4351765972575439,-0.35726964992415006,1.0523833800967426,1.034341003494582,1.4211600756825855,-0.046285882911972866,-0.15765801462472592,0.3842965260615091
-2.0007372126621514,0.7304712297136765,0.24490305596375211,-1.980377710730536,-1.4165519982182357,-0.8335746307429329,-2.6364792484769,-0.33513630395301997
0.6812342889797586,-0.7481244329473641,-1.5520716617047623,-0.15953806971765083,-0.39444962918571974,-1.718237181345682,-0.2505473083193667,1.3360820655693995
-0.5060465727393774,0.7488311950739438,-0.3539067433973348,1.3130620730180826,1.6467872127795518,1.8137578335309903,-0.12234245041106451,0.20296446150801917
-0.8116192427404778,-1.1867865125518384,-1.2880396373491005,-0.47204420488676446,-0.046552813848585346,0.9662292225898499,-1.4462714563023238,1.0102766958433878
-0.07993083560035176,-0.01780960616327505,0.7830646670963055,0.15396132025514173,0.4321854452435609,-0.7561125943447778,-1.6053400265364193,-1.1817002687753733
-0.9839328721516456,0.5738371243596398,-0.3885372042487616,0.7796032200213895,-1.230211839688866,0.23672234777038823,-0.045880943834981126,0.6417667939312691
0.3527438707985987,0.7162096338651661,1.238973688858982,1.2514065581422722,0.4630349664423264,-0.2584189834945869,2.55133540816556,-1.4629460570630017
1.038772526811895,-2.39376754522001,-0.4753967464361088,2.0127196290011633,-1.8017190268432062,-2.0186628228763985,0.11646242517155424,-1.1697966126663213
2.4710786416936292,0.8826869767803235,0.5651225396139904,-0.9190764554870728,-0.34421929076462604,-0.29982808537574923,-0.07322593025845302,-0.5534387483086949
-0.8938945980340609,0.29403104911661465,0.33674151565054133,-0.3926775810562107,-1.2527024340580466,-0.3896116345182432,0.061592134041761226,1.6434801434040316
-0.6880006173719099,0.36359166233187673,1.4638379366407916,-0.44535252437411965,1.0257046469896018,0.5901972494992527,0.7990939543917038,-0.18261923142163525
-0.10242110605117742,-0.157061878625739,-0.4054228480717267,-0.3669468638201883,-0.8629609892397514,0.9151949597067853,0.7374845516890779,-0.5581437478089222
-1.6681716189648799,0.15803389651602368,0.16687442528729007,0.06990402940649532,0.4966719534665951,1.1460555744570058,0.29976004365300535,-0.2096100046848929
1.171191070216583,0.39425344224304215,0.6529804154218106,-0.3224877936601587,-0.04129123909098607,-0.6163991044579502,0.012212583467383022,0.31884747604806424
-1.0813258827973693,0.8333929234154778,0.38246866507427485,0.6887932501016133,-1.1914821185399413,-1.1262118873896059,-0.7038999913928259,-0.3833449342905308
-0.11060402171007347,-1.829927921798707,0.7127611282352304,-0.03900489125740907,0.16187531010068068,-1.6195283375689185,-0.4772132036838468,0.4892952058409808
-1.1828662871419418,-1.299547227754399,-2.2538014684152747,-2.4826590931892483,0.8554526864524103,0.22741308831468812,1.575890915842409,-0.46768399334113375
-0.9516921501072589,-0.5607068003493424,0.9737121614313079,-0.48151582819441474,0.5043767840783907,0.4956614811448753,-0.7521782088958289,-0.4185062521800273
0.8253010287136631,-0.8105872668687507,-0.4784569169688087,0.043022535989816854,0.653936827044771,0.3645142307567266,-0.08566036701496298,0.21620740876682815
0.894493548242708,1.1423614921835805,1.8477003474090061,-1.4393402471790246,0.232695109086898,0.050097296592495705,-0.14952771370523565,2.3261980988922315
-1.384642637953473,-2.193624277373875,1.2796843238274014,0.4043722860539935,1.590528182438405,0.28125257135436765,-0.39159359888317424,1.4338618898057263
0.08269609266617428,-0.1896209810316834,0.0765651629344105,0.9908105099160264,0.015034218181936811,-0.1354833937831626,0.007318574707136713,-1.187881580939111
-0.9504227873672444,1.9489944804083374,0.2791853987590688,-0.2591214008543151,0.06303959605015952,0.00893118347748295,1.3964799220997908,0.11314592316510079
-2.119410818064989,1.2323318867536805,-1.7804140450636643,-0.6142459154711833,1.090170961490009,-0.5095602653199381,0.0448276000897532,0.41276115000305297
-1.410316471664294,-1.2128300018604976,0.37217048102186134,0.7169473371054594,0.16941104460603,0.8814659341914993,1.2692452721295808,-0.7252577491695118
1.4712950159015634,-1.4880685055317724,-1.1964073898849183,-0.19439777581837195,-0.5787436003544231,-0.4789614284352649,0.4462276598885167,0.4776733045008218
0.04175692216659377,0.3397139488426066,-0.6557846385986464,-0.5755497726757343,0.11545909041804958,0.488886417914368,0.278301573909396,0.25289021458256594
0.9255142384781638,-0.4628593868720169,1.1981814832024182,0.9687486695706812,0.10251081405792742,-0.46475404887304494,-1.509214936735274,0.01712056944139182
1.3004448804115176,0.27264375518400663,-1.913239167558629,-2.0525397805660863,0.535901316863252,-0.1281735747061588,-0.5007491832280464,-0.4671426108259956
1.1330762766154718,0.44756683707852196,-0.2391198152825905,-0.7377355981476189,0.9267007419068356,-1.9039927097833325,-1.0324376635557189,0.8614174468600944
1.8889909483670122,0.34844198488773215,-0.5562775410923062,-1.7865986635740958,-1.5853006303474229,-0.48163589302617427,0.5785570140130673,0.5411762279280534
1.0020941284416092,-1.7239093641917294,0.7871510029587402,0.27487157062117157,-0.24465158493417757,1.1111643199253693,1.459851683290373,-1.5977584673076357
-1.3759328035059306,-0.002919221741154924,-1.2565705485172218,-1.1997507423297897,0.5477821489570031,-0.6709177072490842,0.421095979371802,0.018498670399697544
-0.9800312448388323,0.2422687025466291,0.8142476056698077,-0.577884735053434,0.7954897212248881,0.05686028771982666,-0.9595919943257752,1.3003809308281735
-1.0341544264914884,0.6754730908559994,-0.6149565088058209,-0.01771681524491192,0.0698512696417098,-0.183230872708594,-0.33697432053074017,1.3137146422848127
0.4757420297119787,-0.003105311789438284,0.9161733784921036,-0.4248730029699777,0.43190979577848687,0.5960478705943527,-0.31103980183465135,0.882590511814629
0.4513923483817235,0.9530317559682885,-1.3913737964036534,0.12939653247532787,-1.1460350021177552,0.1969071685073752,0.013607177073750207,-1.0945892133046446
0.6591549976099631,0.3581354351918027,-1.2137113381040232,-0.039874228787615956,1.4204976822336919,1.099405500532085,1.3182481705567286,0.15705690793814253
0.9437970892243057,0.662642013599788,-0.7471312624226332,0.11494230683452177,0.24263986952647762,0.608004105034735,-0.1662776315935035,-0.43302348859636836
-1.0779752257390034,-0.730529192407137,0.5358184420903787,-0.6362876201443204,0.6417669093902186,0.34970299213432143,1.240555748239494,0.3041897563719424
-0.9264798216576744,-0.6889931064248296,-1.7378888258225953,1.2664284349103578,0.5997223919486343,-2.5058634770505672,0.3074425484993669,-0.5408791109904347
0.3346076969786375,1.2035274606386086,-2.537541927210933,0.17421968555127784,-0.8168407129307206,1.6088990445988458,0.9796987336676393,-0.2722264806646348
-0.7622181645004406,0.526900487488373,-1.1510764667890128,0.9826436121003345,-0.4205840636695944,-0.3994178672719066,0.27787972460589616,-1.4058097193072963
-0.058565767894650726,0.9824725913582597,0.14416872005893758,-0.4897699288098914,0.010254821491817948,0.347999548231217,0.9477241895241452,-0.8156675654265598
1.044062467764835,0.5769901680327574,0.835449029723196,-0.8366053814379572,-0.0434174314763092,1.7943695236531276,-0.2173178054993201,-0.24857324705636594
0.625573289083635,0.14376000339027828,-1.3582982999867186,1.1607151964866518,-0.5418820652472176,1.6127668965295947,0.5064819036049278,-0.17201881870816613
1.0887520459464402,-0.4928565731423786,0.6693564296920071,-0.3782944796487772,-1.0534505930521874,0.8959720316376626,-1.2653731087415967,-1.3241353522377344
0.4222589850763429,-1.1696867726579394,-0.6742936775841887,0.7308219713870642,-0.01973455752814185,-0.7052596454498982,-0.8307324451282858,1.1906574563329195
-0.5317934589008672,-1.6849902981023106,-0.9352053124069367,-0.6967913407679277,1.7906132820109104,0.5330072040894249,-1.3173884701369223,-0.3165279385222063
-0.4747131207124951,-0.4200883012325089,-0.2690657001700971,-1.3586623838670597,-1.9003426249330435,-0.24032727494938438,-0.24921843643040872,0.895100858528922
-0.11620351209735393,-1.171618513792547,0.11063806814107956,0.7525854072201076,1.2395743776031292,-1.0532966151843788,0.4354601406669339,0.3361940847167827
-1.356342896015231,0.3922401486136459,0.1716660313155636,-0.670324058339723,-1.2648550795637856,1.5775832588581744,1.0268951692420292,-0.5297754344744576
0.8412728923795976,-0.2885966345173301,0.37032357129456467,-0.17809305885937826,0.27755745713749186,0.8095320474456895,0.9455771447947716,-0.764889239238876
-0.23873215752098548,-2.247391348364589,0.6381562637051499,-0.9684323691555827,0.1688065332790405,-1.116498807830772,-1.1750895560726022,-1.5960131066754433
1.8939876525953023,-0.3833889022669035,-1.5662496087179723,0.5841205464291542,0.4004337795923516,0.06555034152254345,0.049544258205771796,-1.7076713570200674
-1.8052525003368067,-0.8327504202064526,-0.9341172489692802,0.26438108692226103,0.730633330814315,0.4861771957866027,-0.15149880419746556,-1.3373695172631022
0.4937283103524204,0.6255337215586475,0.3363156956665928,-0.16670233754596975,1.5737318434210636,-1.7556770465451745,0.572194733439386,0.01259728897893812
-0.6273107929314073,2.3998336847668464,-0.03512160805434394,0.8793997640222878,-0.19326467237942455,0.8981240345215742,-0.8072403889731983,-1.5115413078723583
-0.99664029582144,-1.7152028172843963,1.0131014214738838,0.23202109661435136,-1.315016470958642,0.3431752726325331,-0.5253670756849632,0.6773117721660781
-0.26663686682759946,0.7679373875058843,-0.2962766959880618,-0.27788300734585586,-0.2950210056634174,1.4276628812393053,-0.3121064839590823,0.9430083250114676
-0.16692852088038784,0.001033824041407669,0.9578837679521682,0.8605548740632196,1.2366173710604635,-2.5039321899416365,-2.068106451225276,-0.716396160670911
1.2277889000373483,-0.19657945387006065,-1.1127328499733415,-0.8982529149287489,1.0310092572423737,0.7360097403933887,-0.32494475994574007,0.6566213913271465
1.9314946315801986,-0.7665161477364987,-0.12961899378356376,0.6515416995226493,-0.05065772381475582,0.2654710753378286,-1.0654699450703409,-0.6127336951996568
0.010831788862260612,0.054427896820762496,1.4585080235976806,-1.1737075697332768,-0.8685751456967752,-0.5827421281691434,1.0449061579035688,-1.2879939672922116
0.36870801902213846,-0.8193433750614344,-0.7365449457050051,1.2357260894018698,0.31087778341209116,1.3612993219388887,-0.870781588215821,1.204185406715528
-1.041510669436107,-0.33434307051655177,1.152664931133624,-1.4789749067746158,0.6723053642085058,0.14074280316838875,2.5024748603619806,-0.5025775387701429
0.06467886093267546,-0.9378644497717501,1.4861039568857262,0.28833909353340664,-0.2274874599078642,1.5812108678170695,-1.7327044104320886,-0.32339760847066834
1.216412630690735,-1.091474035247863,-0.03526077122849357,-1.2706835807065793,0.4526267962920413,-1.938173597796046,0.7047920456079497,-2.031935909390541
0.3038313784850569,0.05141204393447533,-0.5163495422038544,-0.39681285822075085,-1.9600593003354856,0.03670997589997473,0.905849291819738,1.0842684272226086
-0.26524902589065613,0.07612384048869922,0.6379617510855402,-0.04926480124318284,0.4978215245037671,1.517669572472531,1.2334442923768045,-0.11183670283246053
-0.37005038508260363,2.5773067881923124,-1.2660644124787457,0.8112511562547009,-0.7201143283703646,-1.440252398104356,1.005380987160726,-0.6894905279277452
0.38452473477839905,0.5467416593062305,-0.38561851966321037,-0.44771930917885855,0.4625385844424301,0.15206721186327204,0.7183804940439499,-0.8532657741466482
-0.3143981056659162,0.3311570380588745,0.30385134072543946,0.5060608677677799,0.942900652345918,1.1799910567913448,-0.153402869610265,-0.4047473453375611
-1.6470731862572816,-0.8634114399108596,0.09398074090794127,1.0152289429798573,1.054585545560594,0.715837434457918,-0.39154211913765896,0.6286246702866354
-1.4905396885439062,0.06534103567488969,-0.27211795097692243,-0.8864110063774311,0.16872987417741706,1.6166070500390852,0.42231081947189175,-1.5057864300360222
-0.8509831591674416,0.10351987743891913,-0.4430106844434565,-0.8772881964516367,-0.20046564720660384,-0.940136346827372,1.1795755215159052,-0.3521538503941744
-1.3444253151041887,-0.07869951438341906,-0.1684328423592609,-0.16918150315998848,0.5458060642375796,0.5978782413323807,-1.0619002008715017,-0.23491091813548937
-0.29497431014990166,0.7459310248780985,2.1053909908143735,-0.6783242508278214,1.2255125079558626,0.6447675777408393,-0.831271640974689,-1.4403980740513684
0.19515332023801865,0.4016136656099665,0.5171512219857655,1.7530604902536744,1.3142648440030533,-2.89074633802835,0.5879902572749582,-0.13209993726152022
1.4034096493257604,0.7906666794513362,-0.9878646807484581,0.8726025703559432,-0.46442289861018543,-0.6773271700613362,-0.05910927049047065,-0.2444259982421321
0.11046903569536348,0.04822456052656687,1.0639956418260001,0.12815049370071654,-0.3293869985115107,0.19637150146371113,-0.6129349799768117,-1.2202965787943758
0.7933845157422748,-0.5413980936240188,-0.5933036733838137,-0.15264402683400238,-1.3687544219972057,-0.2518583963449923,-0.7202126827903058,0.6885643209192408
-0.1793594830575638,-1.3135251568995463,-0.3557520123600627,-0.9880485201332236,-0.5751810835823828,0.13022101714115464,-1.6567670758924458,-2.227298561134466
0.8412393261972173,1.5739167448696538,-0.2714510732982962,0.2500071510968065,1.456257888742611,0.3168872029709476,-0.4951753578893947,-0.6801970617753489
-1.2874585591989154,0.7187423250597236,0.3792635860756224,-0.6451896202629821,1.5448365536088067,0.12331797845571052,-1.163406057830451,-0.09660110984849742
-1.198828934022918,-1.620297443542322,1.0056022347391427,0.9109176085741617,-1.351807313964496,-0.07995035836364767,-0.3863632605282635,-0.6053449708101312
0.46263205656471845,-0.3887165814729008,0.7679531567002226,0.7537286707301077,0.05036114712333139,-1.1336100314219015,1.0127755977973867,0.4828407336776537
0.8483038403507841,0.2604611040467115,-1.3891354832629175,1.101315116075452,0.5153905201942297,-1.2304643656355674,-0.31385287294336756,-0.3088866017433923
-1.2999724157304051,-0.7205760884440655,0.2078509505318545,-0.8010176542644608,-1.0729926671263057,-1.1889927370571776,-0.42231416341267886,-1.3624188568855518
0.9109703152380055,1.67696430342852,0.6406422157551497,0.925240950576386,-0.4885234237409818,-0.8160446078607414,-2.2070651441160747,1.2888105656819897
0.6643756656397198,0.9121729402112635,0.3743515031457935,-0.9296296909948124,-1.5611506096357994,-0.23618326396087,-0.21997592311129652,0.29761561780842183
-0.8027266990342343,-0.17336454477742427,0.663723443664661,-0.653674315897378,0.4737529787801714,-0.18419471720401423,1.0230446133550672,1.661505651908883
-0.9705969307264738,-0.5343694417886756,0.034296197838322204,-1.5622880191556205,-0.5057193233016923,1.367860951704537,1.9313989289938693,-0.2840050205133447
-0.8141138499196799,0.9414630816834493,0.3279620679705034,0.3572953468107018,-0.4816964936069597,-0.28812318780846474,0.032059228593086575,0.11827709387527158
-2.0456692840384982,-0.7134377192449091,-0.3575377395825323,0.024368757020098816,0.25786541739045216,-0.20589604570628867,-1.5581859019968796,-0.9613205046412124
0.1650384065897545,0.021592873154384497,0.26759332324387963,0.4252540553639714,0.5652675840434414,0.8175757927678428,2.0671381854845623,-1.0217421389851644
-1.414902061025548,-0.597709975093446,1.1625910770511758,-0.3738892144314124,-1.1687983078646256,1.9071937364978273,-0.4230464374416456,0.9341815810326098
-0.23869174987948164,1.275489855205182,-0.43337352182357297,0.4388590256013177,0.27568547912032415,-1.506759080408969,0.1061222454375427,0.9018951790263592
0.08123504360292898,-0.026786385845580372,-1.348047792917938,-1.1896515966966839,-1.541702920134898,-1.5580621615313774,-1.5354016489842066,0.16040974533129485
-0.8384401913793164,0.15975825266658264,-1.029411412854039,0.4901382901154097,0.8289620315945557,-0.06976446521002648,-1.2742712875804665,-0.3464799183399553
0.9540302499654729,0.9884499518736364,-0.4483348714836212,-1.5261006680974953,-0.17156431010034592,1.6407460593683312,-0.6615674127627894,-1.0571175986762888
-0.3043089628391952,-0.46584095883715493,-1.1318632914989142,-2.22834111831065,-1.1588948272353177,-1.3711550068802913,-1.1647853433667792,0.8079470644817521
-0.13463827359266137,-0.33293560479471335,1.2069036544741554,0.4896560547287501,0.25137365950778856,0.37075665425825055,0.057320304786686684,-0.200863588941143
0.7034804849231832,-0.2068829781352056,0.9432076292855753,-0.5058788042623518,2.742532747098769,1.2662021783642956,-0.6576879885419068,1.0176773350494226
-0.9580930042306138,1.904557024309163,-1.4801129044341323,0.04145093445522704,0.16564736384671108,-0.5136518800747861,0.4839886858632401,0.128426945586164
1.471402656673395,-0.5418554492138236,-0.8225622391706794,0.19318859865401258,1.3081312914141623,-0.4328141251417076,-0.6933218592216661,-1.6048344972355897
0.3795082733869309,-1.5221287800652412,0.9248357421394151,0.9128708622018712,-0.7234477517199178,0.3301101811748094,-1.939689151479982,-0.8814513434075191
0.9154941979305801,0.0919934281177002,0.05222055248682173,-1.6024359844163,-2.0222579252303188,-0.6356522479921668,0.01827043053421006,-0.5476129823933893
-0.19253101457835597,-0.46784347234527635,-0.026448207650515414,-0.6702511120173633,-0.2350788726371405,0.5552984173227693,-0.7816416569501273,2.518973473884707
0.15332354621279098,-0.11770252587158639,0.04192058284568914,0.522951750532475,1.6578840027343016,-0.9602386722452019,-0.9311597429525428,-0.906389130603435
1.5255542722634983,1.228995652250085,-0.64056882384911,-0.22778369337158755,0.2987041669211505,-0.6245740891166487,-1.756269856749394,1.3450241429810794
-0.8987312019276184,1.2261509601387715,-0.6885338594969116,0.11726954753631591,-0.9790989743796603,-0.4061456544903598,1.1302174547999417,1.530989260706975
-0.4764149117339129,-1.8589768974399479,0.4231868893501333,-0.6381470442591971,-0.13658666874130448,0.028451170330488836,-0.7042654066920934,0.5016316475229228
0.23362957582739627,0.8904555958409653,0.211530463007541,0.26148792700655077,-1.8563702804874955,-0.5126594495167093,1.1957079137256006,-0.5486773925972803
0.9854110745162977,-0.15418134107317946,0.7030027496712068,-0.8785618157583714,-0.3667313947568395,0.8440259993510012,0.7398059380750428,-0.38398877353041805
-0.6340368784931448,-0.9233474961914326,-1.1915755904742733,-2.962865464089338,0.5615793751449447,-0.5329608433244901,-1.6239633735308567,0.44983488853090814
-1.7145892262411078,-1.1194028742808755,-0.5271884938444138,-0.7435942564144661,0.21246908446920776,-0.6587185509823111,1.1638198091187826,-0.9428441356055834
-0.45102547140023,0.8012262130150708,-0.23164574662061133,0.6525221975486216,-1.8306470459870354,-0.0014893378646261505,0.4107480690623659,1.115545417197923
1.5687295342125829,0.1422832413455917,0.9122356135228498,-0.9328902110041969,-1.078129284367238,-1.204407679379375,0.10228907164264503,1.456274368751787
-0.23235841414924563,1.0638464144142536,1.0457503743651593,0.02544739119979807,1.2448646417997644,1.078345768293616,1.2923256279235775,0.5039842622955779
-0.7045293040214593,0.3562378450153447,1.4869448376781216,-0.6082700840251456,-0.2720104794472464,-0.7558353681417477,0.7298368699103869,-1.53877782978951
-0.1725145620949082,-0.05814506982804427,-0.21605444997171963,1.7341099007225942,0.40744693971776147,-0.9870432471108791,1.4200880597688774,-0.9401521220974581
-0.6188614757125708,-0.4415059597048059,0.7256900998694507,1.0766897125518466,0.2779206315193589,-1.774015786034137,0.8393351271393686,0.2295080860922941
0.8443752529060851,-0.040396943498851284,-0.2924615117556692,0.40672327530726327,0.1356018661717097,-1.4840098842793414,-1.1130930116114932,0.2955094681793917
-0.6099458077128259,0.38540435206686374,-0.046786868350380865,-0.6869114014466263,-0.7290488679461538,0.05735626206189954,-0.1541168964587597,0.23651327585048587
0.6419895659710868,0.23602805602727062,1.7984043956881954,-2.081264814414391,-1.6749306445724834,-0.8724764454595637,-1.4000411906887709,1.785869219790627
1.2525355865814427,-0.4858767497059124,1.8362167036480685,0.654020841508106,1.6149968063106812,1.4601084831469429,1.6171041095331375,0.6709322295464254
-0.3359671677698408,0.17153499181895715,0.6027581116868579,0.85533190090328,1.5054757537097008,-0.2731100920729266,-0.23807170928769525,-1.6965844544516508
0.10398165581452105,-1.1004690305469265,2.5113536525734705,-0.7314537378872366,0.23667210480767342,-0.31472539213755546,1.9451904524580501,0.4671454899681842
0.777504052363608,0.6850967853237547,0.6750820355031676,0.9028280671402552,0.9663492341686775,-0.7613990641601925,0.3084297154763387,-0.7951705560775316
-0.5632067241947434,-0.010078712120310517,0.09461792317605684,-0.17897457729458366,0.25297368904117035,0.38719724458219096,0.6212012573570829,-0.6932910165277691
0.48813411873168805,0.3194734639830271,-0.9141285256953813,0.5597349087709957,0.5705767646245474,0.07848930135356008,0.6573586793390767,-0.5139848387538513
0.8720343150076044,-0.503382672462185,0.6769725437560423,0.16279745038407306,0.19572007142670067,0.10464842073338493,-1.3362662106607577,0.9560730509309627
0.17118204660297562,-0.372089716667343,0.599837722862666,-0.7692850917157569,0.41450335112632497,-0.39590163378745075,1.7827913092954124,1.2435343903386806
0.47229302116058186,-1.020069951261213,0.9368740613457464,-1.2764215344365677,-0.8075639287965123,-1.5921922366483996,-0.16847117917239246,-0.5576873198423812
0.05175951824163019,1.004619018141884,1.6128895361645539,-2.010451297823756,0.08905881543255495,-0.07545781231250606,0.020343281182188377,-0.3869452995517818
0.28381509530770394,-0.907010455474477,0.3919676096496478,0.0035851089523958133,-0.8915319357335304,-0.2544155177984553,-0.14313730449140397,-1.581396025980982
0.19759060643173562,-0.15474245843013318,1.5015997090904454,0.7458029727428888,-0.7802499744941396,0.16006459560299496,-1.0705143250836209,-2.065186618157091
0.6527724247138212,0.8736714869261731,0.33316087619141815,1.3390798525924246,-1.270382331504899,-0.42457497898144186,-0.4996575198713062,-0.1736162284170843
0.47282863131819874,-1.5110252591224371,-0.7790623001492929,-1.6194173099653695,-1.0108722808046477,0.4808892510072364,-0.39745505582746116,0.12423714037587576
0.30531624533500323,0.04883700127472259,-0.4779589355098324,0.5101984749623646,0.8620505074937939,0.06108109887957058,0.6796474713476222,-1.1676101047888026
1.2697994996613862,0.6232445507828512,-0.4793696206435512,1.3583813411257326,-1.0020846114350794,0.3117046530198463,-1.3131065871791396,-0.11080967649962807
0.8608900309490419,-0.16460689401233466,1.9286012778414963,-0.7981494581893708,0.472493124751618,-0.679221863710935,-0.5402199199154644,1.1784365957083627
1.7460668819746905,-0.029514475460932933,0.6069378580392023,-0.4312128957150086,0.7936601321034165,1.3088184980792028,0.9188758582244262,-0.5006723229952313
1.383836926889991,-0.7865240570803927,-2.4067784910195145,1.0315672077794116,-0.966757454873617,-0.15327982909218713,-0.08532093505591985,-1.3618084047207408
0.11369443859239148,-0.9276735935260587,1.2202296320801587,-0.9077260413017926,-0.5192325810414365,0.6063537700533433,-0.9242561398594092,1.2033992806864025
-1.363167390214625,1.6075542512645784,-1.8858535792596083,1.1610183185268166,0.15712515041379244,0.02403351087335615,-2.1494787501724018,-0.5738734281750443
1.2268283361291357,0.20791049054897698,-1.2884875786106036,-1.4556193749653643,1.589411418774715,-0.4277843617625356,-1.0656574610895226,0.0613947512035837
-0.06723669715515895,-0.22106740468657365,-0.29214278110502256,0.6439168586744771,0.6686941849515705,-0.6454088706545057,-0.9057687892266969,-1.203979381593567
-0.6589392755816577,-0.48238786629666236,-0.987607513330118,1.394442361853953,-2.0658804144974057,0.7013869815014657,-1.553976219971467,-1.044309847070753
0.4583935465041017,1.0612359400460927,-0.6658325767062029,1.614440024832031,-1.1981671021208928,-0.915199360684478,-0.6474225329980187,-1.0893223481028989
1.3874997776239983,0.602912952502851,-1.4790014309556019,0.85605732204183,0.2513440974861744,2.3126485269572687,-1.0975517136052626,-0.12145566114223104
-0.45433406840584706,-0.8817729122582705,0.626389444180712,0.8370138820276428,0.15298733215684515,1.53943989553672,-0.2759114624827185,0.054848429362037654
-0.19559319192254365,0.4315444054899818,1.995512283018213,0.6522516278215107,-0.4859750011713441,0.3169149276524547,1.8131665664850423,1.1434665919479192
0.8838889122475289,2.264336691638332,0.45097836015763876,0.8954167836295763,0.24647580287408585,-0.09415596977935621,0.28539125077190614,-2.5084048758772526
0.7321426458850365,-0.8171129789164514,0.27911546445163715,1.3967429996141771,-0.8307453294321324,-0.16788796736682668,-2.0257961730026484,-0.9388952941289146
0.7476064172061894,-0.6943648274288159,0.1434470751879656,-1.7177507623047825,1.5758449688389267,-0.350074466997326,-0.39638846585093296,1.2725224769777483
-1.9958732105781392,-0.8403093835951618,-0.21603210204468862,-0.8957045217013857,-0.6211702936699849,0.802981050741633,-0.3427693888414841,0.08353983348885298
-0.6467137387740011,0.8046357148961083,0.5222028683133157,1.1548717508424218,0.7133092684980438,0.5605004260297485,1.3840064572441195,-0.6111523596788859
0.23895458979713208,-1.0686069450192681,0.34522565629369156,-1.274926981940147,1.181730590010325,-1.5042118924374772,-0.358463840820876,-0.4339891563169772
1.0032449523301588,-0.5117314758279018,0.09712261055176995,-2.4982100229389688,0.8996140994622424,-1.2824650503065118,2.7176520898843033,-0.2485029924309825
-0.5733083920316978,1.1293338059883478,0.2727499270668027,0.4706269421988929,0.6003286462581119,0.36816209272141054,-0.30962568540154284,-0.2788694169269507
-0.3256005844406026,-1.503422791817964,1.0045235150389746,0.5982213520622017,1.9240911687458504,-0.414915116853881,-0.23032884628868877,1.6949497852779005
0.016228930557108997,-1.3231255704643734,-0.48576748377699264,0.00988894086884474,-0.38349760671023847,-0.19677788312244457,1.732534663679864,-0.021107248686447342
0.22696967660405717,0.18603320339621723,0.8082117249648552,-0.8954179034749215,0.11892372248242317,0.5568913383515934,-0.5830024089392125,0.5741123687621627
-0.7532709042542812,0.1624921092926982,-1.191379191085884,0.4906073448782011,0.10094851143293398,0.8299420728611222,1.249771252384328,0.9983654767842457
0.4679565037297057,-0.4465127676442405,0.4717441886847752,-0.7346760123080258,-0.4707816370756367,-0.6732204682176743,-0.4776467169340896,-0.7899991912600195
-0.6206400367799009,-2.029921969758517,-0.06304703067856816,-0.4675529965359611,1.4928152790211298,1.6881873031396593,0.5927505320534614,-0.021268645983217926
0.903280030337897,-0.7981522160602332,0.6571426434321066,-0.590703732199679,-0.31224399891914106,-1.0649425039047573,2.1802109795793596,1.5065747909517362
-0.055950943184796154,1.2024839933394174,-0.9584796205574349,1.0399784443164282,-0.9284881758411674,-0.28222561207712415,-1.9739888700133996,-1.0775102998875505
0.6144363550428109,1.395935631602036,0.2808612406576809,0.7306252052313112,0.5195754954818969,-0.6567758917051526,-0.6978809268927577,-0.825415287244497
-0.950072143182006,1.8122219143872909,0.4920746670192736,-0.7629498846708527,-0.884890843547586,-0.37741140964040604,1.522104028449288,-0.8183243590067311
-1.752922760334111,-1.081360227494411,1.1885511847758572,-2.417009038522346,-1.63580513857308,-0.9347535013899354,-1.8571213180277246,-0.9202398943544167
2.708581298153939,-0.36692613358179177,0.8276326881042664,0.5367117778832461,0.9938334776512536,-0.37847871926970333,0.7046470884770294,0.34565069961836853
0.6174805758693911,0.07336749634660422,-0.37938945256461365,-0.3219013646381624,-1.074260503296212,-0.2389534142272023,-1.199201645421848,-0.18773644053882285
0.01080280842153972,-1.4225056949100927,0.5289790630063135,-0.0006125463579830838,-1.0472546197082162,2.9253520099685106,2.1259886255007543,-0.0905260013618452
0.8996247383000235,-0.38786849406943236,-0.31013578101443146,2.995037483478022,1.2214129845892208,-0.9948210756444074,0.8020519341993536,0.3166502071618582
-0.854366437367104,0.8688399892604172,0.8511435169717164,0.2942687072176958,-2.450922976990242,-0.24056370984611458,-0.04095903706379382,-0.43872098769536927
-0.5961427536798397,-0.25296679533767535,-0.36009878006697144,0.5581641842938194,0.12458481664436448,-0.17213518731068594,-1.4116967299839727,0.3105241603081455
-1.4781675058958792,-0.16918487399855264,-1.3826885207545725,0.14774325346701975,0.9155309624377276,-0.5957812233215596,1.7520921956557518,-0.5656929499602689
0.22686878988878875,1.8848115174487685,0.735224642104426,-0.6345237445176515,0.5251232328897711,-0.11951829875876045,0.5311015297255761,-1.5009007721288798
-0.9025600691000951,-0.9674122681002966,0.47979201142507855,-0.32611484697467136,0.02879695860626671,1.6825893264078469,-0.5162015678698002,-0.9867446317350729
0.36259674510775186,0.400809496775625,0.8739036431197945,-0.2732592819882851,0.6083100568885415,1.3772618201267623,-0.4808515621585399,1.2530861711304688
-0.7182950750108935,0.36093298145944575,-2.3539542956807002,2.250972029462812,1.0043118664850832,-0.13809230990415242,-0.47654702791882103,-1.0398397532212165
0.1043253146871004,0.1064135023733855,-0.610590909658159,-0.06967885208118813,0.6560709693299671,0.8475720038671462,-0.6542477979895835,1.5537977971106762
-0.1784845067884036,0.8095114068453372,0.08441739690990445,1.3576506559970913,-1.5339944131683472,0.9051958206143834,-0.9219755047227186,-1.436489535798032
-1.4855787130152067,0.06940323673357428,-0.1394436259275991,-2.8570005424503155,0.09437955625450685,0.3891577700220027,-0.14126272597314052,-0.28025002790995485
