0.7626659434509531,0.17265399858713187,-0.44139601393681693,-0.5684701866585055,0.18430119941040374,-0.6829512722647327,-0.23862553789320892,-1.5379091079604783
1.3289930770965708,-0.43235589606808666,0.27086743041240535,0.14127286824695884,-0.46944327589655405,-0.45351038035071595,3.7347093028418845,0.5883427486179846
0.9100450661066423,2.513899925361851,-1.1005956504743282,-0.011075371671089402,-1.0092990157009758,0.5222073506289342,-1.9036906889902825,-0.31753025657543327
-0.202380855322267,0.5425077037559768,1.0638579005289162,0.18885172225751123,0.08292895824760735,1.0041476843581731,0.4774986176173797,1.4801370214923726
-0.20228356480017964,0.133665255122042,-1.5113149743019882,-0.15331644215374246,-0.8910022666212454,1.2192997188283845,-0.8637427103476292,-0.7982304629595037
-0.8991390002655043,-1.6824330060273784,-0.7262080048422078,1.0685153242916663,-1.775172522370519,0.9016941002320824,1.0435653988761697,-0.3535041468480762
1.6207987135089614,-0.5982199141873328,0.7860035763643444,-0.43738953617906534,0.5577496070998617,0.42035363206752774,-0.5484930573940291,-2.1507878756405256
0.6445076987355618,0.15768390818395736,-0.23871664894489888,1.9672318889928158,-0.5463609400304373,-1.8839548643070034,-2.271766341554482,0.2840857894207178
-0.7580097362954227,0.2950469399150934,-0.6750785891770329,1.1928415349982449,-1.9812781025266746,-0.5422882532583837,-0.18934246165630783,-0.8159852784153793
-0.27719183122487207,-0.6580435504035319,0.3560907897741377,1.4206346262512008,-0.44234088053501297,0.9755609715376043,-1.7742973622927376,-0.3715365156994227
-1.2957996094405841,-0.5075033885713635,0.019382547684998818,-1.3937280888744243,-1.2345632311621177,0.6636349199294315,-0.6058092558449152,-1.3311529300879583
0.8593193446063456,-1.855573403413587,-1.496884742892807,-1.2070564804401225,-0.2133910961651934,0.8955193958910007,0.19131758966642054,0.2656441224602249
-1.729075207298453,1.4776696521211279,-0.5218233788421404,-0.15497478267261816,-0.05303207619387252,-2.193504700110122,-0.3081993813096243,1.2603844415117447
-1.0111999669638052,-2.242992051007567,2.373610135651928,-0.22371979526740887,0.17429019785317368,0.19582290813391212,-1.1192626215029453,-0.463416273273765
-0.23397953689323664,0.21569008730837486,-0.7469288750741233,-0.7831727451139217,0.009777022061501498,0.4718852427946477,0.3286497892121015,0.9171023548047765
-0.7538008482370251,-1.1152749703179523,-0.9236831522442965,-0.9966471158135765,0.5117636664391444,-0.9203192013282617,2.007143889360552,-0.24829548317641145
0.7752179809805965,0.08125007248862637,-1.3777657292866163,-0.06496521501882042,-0.4620346513957286,0.17934198903832382,-1.6079470279823085,1.2265971448105057
-1.0779861403130202,0.8607026568370048,-0.2552405744564977,0.5719598837483681,2.05546753911747,0.684086284088303,1.0584330645444142,0.1723459213276024
-1.7725760964083002,-0.2704391621126349,-0.031204048385476517,0.7568182782711433,1.8515136932098253,1.0091235767558604,2.639502499908539,0.6303130591591128
-1.5775893940011347,0.855809095463234,2.1134468231446033,0.7486024805338822,0.8444388188970517,-0.34770786038102997,-1.5649970008133822,0.22854442385034224
0.6460473932278971,-0.7858564055805286,0.14743621064891851,-0.7227927840705693,0.15583873066568174,-1.4388062149412864,0.019115730448070523,0.9708911953368407
-1.9001470090033827,2.23744568239935,0.3403644148641349,0.39311822037047445,0.19473300232776977,1.6134356129068557,0.27190132567215597,-0.17842803218476772
1.1962577672705945,0.05883466749906418,0.9364027292146389,-1.5127664503695093,-0.4169847746408388,1.2065858809900158,-1.3482746055242938,1.5937935849950076
0.2260891998383582,0.11103733170717235,1.1553864259522297,0.13997246509624928,0.4879043410478352,0.5326235377488744,0.0018736528173063126,0.7584631350723011
1.576992442469831,-1.0620074235014116,1.1295215043051026,-1.8821414439033772,-0.5106334518131571,-0.035382833526932424,-1.5632781739968418,0.8104684665279952
-0.81543611226123,-1.850359336439065,-0.9371008412637949,1.2176822040675463,-1.109905012823384,1.179949505461153,-1.7092238955660357,0.8028152273679393
1.381127945085916,-0.7098117544578229,-2.1528448905116178,0.41142493673351954,0.8361774881787226,0.906797870213876,-0.3122260893137773,0.8803257490563441
-0.8462095248085499,1.3300778670342703,0.24073788795603424,-0.34495550347156817,1.0796137067039282,-0.7124993204244049,-0.6196261453050035,-0.07023463521994813
-0.2350478581902185,-0.99235716140302,-0.86458712659284,-1.248088542466135,-1.040251387285058,-0.6318913366170151,0.5616263500668476,-0.056580086729798196
-0.0428317026077141,1.5333317119924508,-0.6904167830803477,0.6597943174631381,-0.4704506970006803,-1.1681751033215735,1.111717344499878,-0.03969768409573872
0.11929637321338919,1.2401123824386084,-2.634000854099393,-0.5664334394704157,-1.153299382111684,0.4451658460683544,-0.19785339702430457,0.11499571589360469
0.32061160851073284,-0.04563728851829232,-0.05661147111134226,-0.89864098487678,1.7641889606572645,-0.028127363067793645,0.08023869912348362,-0.5135632697360409
-0.8593766092717714,-0.017120794838814842,-0.7072475003957367,-1.1604846883353281,0.1374123129169707,-2.4637540146014056,-0.3251817639712053,-0.07197186218519316
0.2392075518538944,-3.244471794314267,0.10319076748432005,-0.18469694463918718,0.5220196588278996,-1.0444981529461637,0.31852269527655364,1.5652176883843412
2.223866528083104,0.6957559047952575,0.9472108509779673,0.47579820261670625,1.317752028171636,0.13191623294136598,-1.5962980558649194,0.12998882533042974
-0.5010371120345205,-0.03149238438051918,-0.4891806737152329,0.29766221445248026,-0.9784501560689444,-2.2440121500989982,0.38577059559600146,-0.4657098590386767
0.5800086490602059,0.358883256447155,-0.8026651646509956,1.1556198977860748,0.009189157280671562,1.383740233026015,1.6385493439307823,-1.7658918937126014
-0.7300916581946626,1.0172798712509343,0.35537176741938337,0.6401956123729848,-1.0089529745851495,1.0609825327870415,0.2650026060780412,0.9696655219984528
-0.2293095817331753,0.4410269879577464,-1.9402330255867621,-1.1858752648750488,0.47525078395574843,-0.04825333103105073,-0.4197924754506781,0.600817270146454
-0.8755568980591449,-0.22418984056124847,0.37273479506151286,-0.10556371931325816,0.9368295100587521,-0.8642649885361305,-0.9198206259621637,-1.3808494908098414
1.39669646043749,2.3349036760847848,1.2857755862920208,0.9890648093006255,-0.2562034063357037,0.17163356439867386,-1.2325309893074092,-0.9391550799802869
1.2815920626410602,-0.583232983877869,-0.6867965103307887,0.1502957349729882,0.7852243768194481,1.1415715488798819,-0.4171340919728834,-1.6880619525620177
0.6166374789547452,-0.06887487315378933,2.0574399061148956,0.9406742616505459,0.3683748755949357,-0.8703069876604836,2.6359225397003665,-0.37836111132293154
-0.5325788725093047,0.2125393875870118,1.1295289612807533,-0.7621541831900308,0.8345615843067218,-1.0844159578261483,0.6950253594122511,0.6681117500250698
0.6036807411189111,-1.0160951011856278,0.9250385076583464,0.5990789874918766,-1.0778861944000298,-0.03468749840706537,-0.27232060748324616,0.016106907811921225
-0.3130257260422359,0.355956461023403,-0.6600406290315561,0.5588512265864675,1.978769472201704,-0.32159506435983787,-1.157261679072878,-0.6728786395387599
-0.06356330459825088,-0.9244626913107032,-0.5845530427799438,-0.11386082041762167,-1.258673872352503,0.9570404793703646,1.4964728086226886,-1.6359612285962095
-1.6078523467849013,1.0570734575543566,2.557113297707714,-2.3059010333286407,0.6008329896902923,0.47430658557975997,-0.16937220243310228,1.0193819726758782
-0.30873133571413514,-2.6731523931390657,0.12694984544718632,0.6187426149540778,0.6681275315060687,-0.38957835685314307,1.4413045185363735,-1.873693004562727
0.962970285602438,-1.3534190018687562,-1.1994365385801435,0.28855907061769903,0.5588831085125984,1.1493947732159322,0.42779569552260327,-0.3021494521541971
-0.5859424478277682,-0.3892168580871427,0.2137039080782598,-1.2807372056455695,-0.05464759775983854,-2.7585083043257463,-0.6409056696303467,-0.0761662331699831
-0.6884431692715128,0.27759473429997295,-1.3036201975062696,-1.261205464221854,0.5077008298008542,-0.028256644494387802,1.1547566333854453,-0.8684446133005503
-0.8924129791493087,0.7602330665404011,-0.039922246576864405,-1.490641446304622,0.32308143973522746,1.3062192710400122,1.2891902111357532,0.172685178250787
-0.15548359598324066,-0.09557059050695774,-0.02861266346424316,0.30017951644981916,1.7077447272326904,-1.0026402698781167,0.19401190982996502,0.17369721267335744
-0.5871042540723489,-1.027717296309575,-0.19700089615522243,-1.697705453926335,0.08240757733735717,-0.310251841153281,0.9272480951254941,0.9307276485768503
-1.3671708286370454,-0.7410529244919087,0.16036176908262642,1.3887199453143928,-1.35402732736184,0.06663081246741562,0.852874156124199,0.18301076979656875
1.6444606990578163,-1.3394046084800688,-0.33047814699363154,-0.3380360765983515,-1.5620529080165297,-0.6887557736307303,0.8002193309627245,0.8868373392800517
-1.3024402804969593,0.26727206642484297,-1.923523241280581,-1.4587184843497216,-0.9022971638421227,-0.7389487644614433,-0.5408412069078865,-0.6595740680908471
0.35753050804001946,0.2901889874680316,-0.7904666046834278,1.1860913913490743,-0.47713155127411755,-0.5609620043006417,-0.5900857714059754,1.8278811158967234
0.9945360417368698,-0.4093487409771478,-1.306687320747372,-0.6155746982984076,-0.35033131416812907,0.2678467611975274,0.17352374733421289,0.33974719942145787
0.7975852051814762,0.6223979505531607,0.7929597001308117,-0.8183402691173276,0.12406154007764994,0.3766554575604199,-0.037046633939381644,-0.3313221043465824
-1.5860450069397805,-1.189686119837239,2.57027643918558,0.5889559061352571,0.45653679182369505,1.0629945874342444,1.0976681678578157,-0.0580597883834637
0.3643303410104118,-0.17095179639018862,-0.23746893564880414,1.0080567808141367,0.3392593952331872,1.4573250788952412,0.9765622212207012,0.46786848163966493
-2.0571901609994363,2.9633905665788505,-0.1490238940519231,-0.21093403927747834,-0.34859845324659305,0.579212136033985,0.030448612016351153,-0.3231000089610421
-0.6523807217489823,-0.004683435200474979,0.5242160231409468,0.5308878337457033,0.6058253135168165,0.6908461014920969,-0.18330209433862138,0.9287044708696446
1.6157520093976507,0.9192611453335119,-0.17030322344727128,-0.5163321650942965,1.3517393635032617,-0.8535322178098517,-0.6095662152182075,-0.3479478858906752
-0.17659443153854076,0.0422806146162713,-0.9167333120266555,-1.8647545341337335,-0.442720479933661,0.19359075105075915,0.0565427483421596,-0.2933510244122025
-0.23692045808127327,-0.5893975335376893,-0.4623252713601452,-0.7651406365251257,1.8398175365866216,0.2104500213339966,0.3288598127634611,0.8690923838323694
-0.4689003638274514,0.11535798350167284,0.393510913938038,-0.675648789594868,1.0031440785686772,1.2418576913492383,-0.5282007854231326,0.3578180999859311
1.1167854150510195,-1.4300587597950878,-2.22939778902789,-1.9616656868973277,-0.10738800140068208,0.056519425139183635,-1.3492601552653918,-0.31613123269952376
0.6789836854636926,-0.48465413528177914,-1.0713488746569546,0.1676243969804164,0.6412995832766134,0.1668005244116605,0.9991632799711141,-0.7008571623963479
0.15206254916224476,-0.5843772877516781,1.1758351770493192,-2.202639780383027,0.9411135614821717,-0.7139647594832498,-1.4948545790311034,-0.5140837480196776
-1.0683170470935495,0.1448444195070897,0.6164340990272309,0.7455699056045771,0.7687033756619681,-0.5973874529328608,1.156797893983568,-0.02856675953680262
-1.86423918546288,0.11632334324523685,-0.39400024071578177,-0.9616520153392304,-0.3256964863773916,1.3816863384796028,-2.123661271962735,-1.4030390356069213
0.9538087277887665,-0.15806221677192545,-0.6471328656638042,-1.318818723974661,-0.007932414538363635,-0.9520855634072033,-2.0878984098051494,-0.0633711608133599
-1.0248754466360848,-0.20253688858008229,0.6693706195591336,1.2649479172438247,-1.773098781211751,-1.6635379989296002,-1.1137864444045897,1.0444520059032651
0.4145091965002922,0.4949189697591871,-0.8490564491139874,-1.2601765953170925,0.622585142869354,2.1674170850806402,0.6739902453237787,0.24597540036675666
1.4110210050319523,-0.8597914588125337,-0.9452776384266498,1.247523308507466,-0.8921984527685497,-0.38535960076277126,1.0100356049189867,1.0948053275034881
-0.4360924974947128,-1.7867580958153102,0.770000423094967,-0.3375807998405605,1.7505828211184544,1.418993151657514,-1.3220621211399752,-0.7514242534816137
-0.8507919771486024,-0.20278656338511736,0.25188362035091766,-1.6457825529969026,0.08366139596302427,0.08843502815316309,-0.7740684684303026,-1.4825015527728038
0.5807089698003348,0.6416081077743377,1.4420291287244602,-0.5624341561066568,2.876583574663731,-0.3672281870058393,-0.6847388259054896,0.3777052803387581
0.16374900594972575,-0.67381140368268,1.6757209654874496,-0.7769084827410162,-0.0805973329381822,1.7673790277469048,0.486909669109449,1.2872930045145075
-0.7951878844793994,0.2549150989266635,0.4208478330550948,0.0031280283868814307,1.4095116702609214,0.09328761022733542,0.06459247890443401,-1.5066345561114285
-0.022897572648512415,0.38741981175893847,-1.2085177843603996,0.8675698207624154,-0.9193388085536177,-1.886607441875922,-1.1967258611147351,1.3064339311171342
-2.0036402936975692,-0.9301665615670314,-0.14188829964682165,-0.1978996771900985,-0.24046625864409188,1.5144202148502655,1.3255863776867245,-0.7100106855584888
0.7260611761584602,-0.591924915366652,0.1944212865589671,-0.9774619928480395,-0.7561318121140498,0.6115386226416152,0.03696979243965204,-1.0253272068804797
-0.2099721430949124,0.12427171926450317,-0.28685874694272606,0.19391650483555303,-0.5137444533600777,0.0917827168489754,0.8483860275300128,1.5704836018968156
-1.5578382465917637,0.2900437433543343,-0.09274300200567898,0.5093935164634612,0.05949356405891461,1.0706523460313115,-1.756981081495943,0.995738885003645
-0.9323190084944808,0.47706336871339544,0.12472689462199127,0.6237658135702074,0.7835463996131963,-1.1426369090841124,-0.4876103958972331,0.1792426127277205
0.9461066055037236,0.22296416677882977,1.9398757712074692,1.4988096593103966,-0.7341352586813669,1.0302602554381222,-0.07328604039918998,0.5454223398810767
0.5116425213140402,1.0707060785100084,-0.9923375436060355,0.24025548558059903,-0.09428714735944134,-0.7643738525787278,2.5568273590953745,-0.7247610857278197
-0.05574098180488493,-0.4857888411346975,0.5129159003639306,0.42210014908707255,1.2855145109739918,-0.49596424111853865,-0.08836205177394726,-0.023266324105944602
-1.4905677796543226,0.2450317540959902,-0.7867403786918588,-0.17331693284128763,-0.23693035086177394,0.10564635199493529,0.9439528579283999,1.1623931771753653
0.812220845452863,-0.7503081139117809,-0.25046998420373484,0.7831839600660466,-0.3768042320323609,-0.16915759057989901,0.6234383399600846,-0.39244294312632066
0.33142766109167776,0.8992245599886733,-1.703928382661079,-0.32597193998167234,-0.29757102151605075,0.6230911596684416,-1.9074770054190815,-1.6240832775572627
-0.13417697448487897,-0.21662707168312945,-0.12905514119105374,1.4277375691431475,0.6447995272556132,-0.777897817695752,-0.8367730435296178,2.262858270653949
-3.5145551486404494,-0.15025888033169388,-0.08780894051338702,-1.3037566759319406,-1.232226018896777,0.3005004931832742,1.520866367392763,-0.8257440845400504
0.15986154206109543,-1.1514942765482514,-0.9935401940919129,-0.2240041332849008,0.1588806134833636,-2.0953079071113376,-0.34975260804495945,0.31550046184324626
0.10882031731171639,-0.47937270083934314,1.9707346954428029,1.504664038897478,0.4213656660413143,0.8773965986678977,-0.19834923957096284,1.7749335001800182
-0.3444270869061864,0.15667960293207606,1.0306650754900575,-0.09503527492720812,-0.4795526472755314,0.561862437263629,-0.012913403638899184,-0.6263910991340704
1.0729149006711345,0.5529416969238563,0.7209502730003953,1.7549152297687731,0.9830985280079305,0.6967687073654785,0.8463328654682227,-0.4017059436448902
1.440691343616539,0.10257680636624938,-0.7675115046039332,0.3474710866946687,-0.33839031958374,0.4720151820883229,-0.7753708165821437,0.16669564731845504
1.5941693954142608,0.30414832916273427,0.06953167997544853,0.7943265723868074,-0.802898407590207,2.0446552207387536,0.6396380943958896,-0.10676173171968444
-0.03192899611728729,0.7054854835847193,-2.064249886545346,1.0533377760279883,1.4565721188565492,1.687051635331718,-0.39002718006052234,-0.4986228740963222
-0.3947431774496042,-0.2853077822691772,0.6716672004272447,0.016494454659507662,0.371457595593977,0.4201191420078619,-0.10868448706250287,-0.6183783399762759
0.2431667896152244,0.8053288478650612,-1.7353255196814008,0.09319007496520154,0.4410688385240161,0.699878944254391,-1.1844346876599356,0.16230073201280304
0.5388244933080554,-0.09631757817923725,-0.1576091458734426,-0.14843932057812262,-1.7864251141554104,-0.022360007162812057,0.4294059071475208,-0.8944762375302626
1.0041044621147457,1.1840891610399273,1.2071180281162484,0.15590628760968228,-0.9656516878641414,-0.5885868593696248,1.5465663254962239,0.5654436824932544
0.38260264894750773,0.3016432552795343,0.28602419605504864,0.10278049624071117,2.090511732175448,0.7184589647627181,-1.0684883778987626,1.569900439257472
0.40802134736769935,0.45057360799380763,0.9850043586435716,-0.7464514088538329,0.5312999413457199,-0.5106750276599815,-0.9501897350037996,-0.08249906758624101
-0.5236321052338009,0.6447607153745958,0.904126098173522,1.529678197150127,0.5694207706151647,0.2573431967603088,-0.12445477993905248,0.9052615689076615
-0.9460868478060834,-0.42912358209911866,-0.7577600171385563,1.5457663230262693,-0.25686290705589127,0.9941691427633484,0.35013905646701987,0.6062819116161181
-1.2021694939524448,0.1449422363334007,0.9104700320327758,-0.7101588081703927,1.3570512653332671,0.4756873683304039,1.3289525634940706,0.30507341710055996
-0.23595474903718686,-0.17808257275577086,-0.04656547918812881,0.6563728955392341,1.2355955390094158,0.29144351238990024,2.7583159139735876,-0.807852250997154
0.8608037899130532,1.1622506876895864,-0.9289533868638268,-0.8286502666719123,0.12723114179826248,0.2360055575667144,-1.0783738790716804,-0.029259044861653618
-0.7659691275690981,0.2834387714339387,-1.7771530037585037,0.0726757394993447,0.32532349413278555,-1.286188458305724,2.23389528436371,1.201240051589954
-2.4197143278525206,-0.8587692378992732,-1.7917057664217677,0.2908430162351105,0.060381197582065796,1.0716679094972685,1.2996383936200557,0.36157779953322716
-0.2777772592632952,0.17893265843643327,-0.6885994447480313,-0.04661249960271505,-1.1234190733255232,0.8402107663294816,1.9296766273800987,1.2255636693858878
-0.2435091225088556,0.6974388136185193,0.4531845632783286,-0.7174068826903719,0.40654703118477703,-2.504375570524286,0.6427814144857632,0.7952841894075793
-1.5198437631709174,0.2570527207307737,-0.12824492326837558,1.090868128446338,1.5562971881570153,-2.0402427975362225,-0.8606809296456779,0.46056553709376225
1.3833902949487016,-1.7540560379884937,-2.013998242041052,-2.144152804757073,0.11239676622633947,-0.5917027353647397,-1.7811907731859442,-0.9106959506460227
-1.8138471995711418,-1.0391522249739387,1.9896012522710498,-0.7406234355686501,0.43257353451323327,0.14857964946594104,0.537401455265964,-0.531775370627564
2.117110721505598,-1.562479444162334,1.2666577157176144,-0.5796893739761355,0.32404189244948817,0.34506700115143446,-1.691679353157612,-0.7146310244711794
-0.013291074381205041,-0.242073080113381,-1.6258100466004708,-1.2757521557203733,0.5928067401646223,0.6009028214823359,2.116708329476131,-1.516215397384603
-1.2250914610685306,-0.012561117850353378,1.2644601673460385,0.23377714898235952,-1.1316755524341338,0.493205633977261,-0.575627065443175,-1.1182046795881426
-0.4537403405763966,-0.9472314142078637,0.42612337611799805,-1.0802637973938745,-0.32829733065809563,0.886172598496211,0.27404773857125486,0.8416600987949641
-1.9700016470021344,-0.8066330753140967,-0.40162506361599243,0.9322108106625702,-0.19755676386519627,0.6231880119124791,0.17831055212729166,-0.39183362610061306
-0.6382210523119491,0.509543717582269,0.8457723511463109,0.7307791379278376,-1.3144291881944916,-0.6693314344388402,-0.13114923315953886,-0.7874976348230611
0.8275080797215152,0.7950919328456645,0.7396703205484437,0.23813439255701313,-1.4852158183460393,-1.09461615441415,0.37869707641996003,-0.9506644516649835
0.2416398365277644,-0.34628751631590665,0.1290312659934516,-0.976764652678877,-0.07587286541358508,-0.09797747469867688,1.5590932644376183,-0.18066638697158896
-1.0878580648080478,-0.9115785851802657,-1.3103779877125856,0.5406745188526925,-0.2531867642165659,-0.4150580515436996,-0.26666626642617686,1.1750108698983268
-0.11664761104093369,-0.9780738463942005,0.9706069652601006,0.07555388912014765,2.5591813939104853,1.1844573646403498,-0.33009475622058576,0.4245166122669529
-1.1475183403119347,0.28070956005499087,-0.45860540199749505,0.2848063775652286,0.3683431319468333,0.04801706328535738,-0.5308555098927972,-0.2840330817517957
-1.105656706355526,-0.29839897028764767,-0.8009882015898198,1.3116179262566463,0.41799451315364733,-1.826107690459875,1.0667739502936,0.2799761915208705
0.48177567165493235,3.262651411322245,0.9198841927023876,0.5058764069248664,-0.14705154881806118,0.09859900483079721,0.10531014648035507,-0.1843067332907478
0.5701716997023162,0.16922005354100148,0.35858270188340846,-0.9530273005226896,0.955663778706874,0.5043449453351748,1.8227743147073634,1.6737546324040988
1.5031286330610292,0.6304569137169611,1.0493668780381533,0.000660309164124262,-1.4709257404541254,-0.055801538763707935,-0.3178113448240428,0.7578327531191699
0.22363393355274525,0.8612304142676245,-0.057124091087073225,0.3039793453036316,0.48575269685900707,1.1302511504795778,-1.7783126047026125,0.9968353959344524
0.7749272040983595,0.08025061835691238,1.7815508084624851,-1.5574929146915615,0.37150808627477894,0.8858673743569502,-0.9239165526882641,0.975535282862098
0.7505088028947315,0.10413467367646495,-1.1741638988299352,0.8892001356777146,-0.08947111414257874,0.09070723057223676,-0.36429181060300664,-0.4367784623571965
0.11730255983308145,-1.9417625605458273,0.2640050026301203,0.2762600986144115,-1.5250449470786354,-1.2203546852909881,-0.7126002767602312,-0.06700929662050274
0.4530665127582424,-1.0022228274039613,0.37690991447383243,-1.3869740086648317,0.3209025049333559,-0.8610162475381313,1.2888925843055,-0.8029042981096732
-0.3586805340480404,0.8228901256473712,-1.1071024224579968,0.03396374800473546,2.171589253539755,-0.5138502258809177,0.07027757768698539,0.5853896645017829
1.6545569113643477,0.1767766231660816,0.2962489233925326,-2.071464841295556,1.3769596131273127,1.591448774415717,0.42784949088839475,0.03539853871496978
-0.9124327860548678,-0.4928973726519055,-0.5599711935051678,1.3678818718138992,0.05537971964079192,-1.3728391488019553,-0.005216723120120249,0.33992808012638065
-0.9394856178293407,-0.9826584648545843,-0.7126022139966847,0.8544959851203965,-1.5819588462629042,1.3050614761055557,0.013910306199656436,-0.8226064808137674
1.6901710289615832,0.10907204757938926,-1.6696081364387598,-1.3102976030566762,0.2265604079366817,-0.8281515184576398,1.7154004415499453,-0.5594312849646411
1.1600473754040674,-2.1598692919438687,-0.6460692867918906,0.3407263381186999,-0.5469542372678619,-1.402743382346433,-0.354830175193993,-0.2533786539103108
0.8837718103853852,-0.9347832880864019,-1.1410950172208847,-0.09692828297321944,0.13446499208991758,0.1273674492989518,-0.5218072281368652,1.0003775633500758
0.14926922513068855,1.3120491742993752,-2.525067372575292,0.36346011310694426,1.834479309770925,0.40158516673238814,1.5636545542854077,2.006717054202168
1.761030253280047,-0.9850112930893858,2.1633605666235627,-0.44637401690966266,0.9139641019781739,0.8936639854939687,0.01884826134937943,-1.0341943895991594
1.3298795060873132,-0.41952160630306057,-0.0015754653149571327,-0.3296748227683944,-1.9254196152914862,-1.2500078998285808,-0.662672085894752,-1.0657615723473912
0.08098666041929821,0.09078904364129907,2.2875861373257815,0.0832658401290959,-0.4380169294770444,1.7656383286233166,-0.8344378014608682,-0.76339196193925
-1.2715172462395035,1.0938582335677693,-0.3470357593160406,-1.0858104959354211,-0.03098731945417899,-0.6482219363354287,0.6901268460940309,-0.22817227074578314
-0.04144751958801783,-2.35369757134649,-0.8592237782140543,0.23316204568143065,-1.6344793207683836,0.060472115030535074,-0.9518011818682268,-0.5850523347601546
-0.8472473146323517,-0.07871711499952408,0.33471028544836273,1.9900293538984215,0.6624297730277154,1.343341575560536,-1.9631809343389037,-0.24810471985007898
0.9208233319627143,2.0687230796663734,-1.4155891246973367,-0.806490394290716,1.3968695027003803,-0.6409602719121046,1.6878457130356146,-0.8901186828919853
1.3520340995753628,-0.16624539122988677,1.9103375468468757,0.1743551154705548,-0.8833196918712328,0.14848789227757167,0.3311025399119031,-1.2221088768485724
1.3938368700083805,0.8735159446643562,0.04953471402105278,0.34528239236488373,0.1122905855339004,-0.7453814138270717,-0.7195896247938457,-1.0079286715687643
-0.30315683122517717,-0.24152452001540103,-3.4180245911245453,0.7688919305620604,-0.12363119871796203,1.891421150236439,1.1935537196069932,-0.13690622425078677
1.4387109607840471,-0.4626345195147969,1.5462400695824918,0.24417123682475367,0.8097618052344904,1.2836882001392669,0.5595793145195485,0.13366162643071663
-0.14224463789771685,0.8326342998722139,-0.2503599319082179,0.5157917069918379,0.07944908562840841,1.1041648634716528,-0.011270867359698771,-0.09993765724993195
-2.5791163938756605,0.02734543922410161,-0.765539478794308,0.8154934487492362,-1.596321198069489,-1.5692927432845982,0.2288687234361534,2.985203750993999
-0.9446092720805528,1.586553986508501,0.7498768056592365,0.3106068385247388,0.40531413899674923,-0.35541788006616987,0.263406818157597,3.064053928456193
0.1349959507693162,-0.69269845543116,-1.1389296041998036,1.3039067347168696,1.9875093217385835,0.7367429330218694,0.4144912194994938,0.4785749579336748
-1.185009560813426,-2.1514493915015698,0.6604011118394306,-1.4834615318427826,-0.6935773909702948,0.28863506016791773,2.0911295341838225,-0.686588054589628
-0.09692194209067843,-0.6331309543713783,-0.4304542327503751,-0.6281228082880079,-0.8983007637879422,-0.4509777397837673,1.0781348329872502,-0.9824957781790252
1.226759291438333,0.800539180985284,-0.7326913775006311,0.5938835500741118,-1.2841724566277835,0.8341979460515454,0.08048800812254046,-0.9598789208638585
0.37645765303419176,0.27425451515851157,0.5084132411686949,-0.6314640435436165,-0.28621349892466835,0.0043362448110863035,-0.2000616587149323,0.06886921776093308
-1.965677138229777,-0.8666096303734243,0.040668005976962844,-1.217176245785418,0.4516977681942966,0.10100926142874798,0.4556650943197997,0.09146400099709055
-1.2854905899967606,0.1849628871151635,-0.7971077548449121,-0.8442331928293527,0.7927072446212733,1.106770199520308,-1.7356427270029862,1.2538747931392253
-0.5496595112506187,-0.23310532818166113,1.1128191908077028,0.1721115738079428,-1.2752498700990842,-0.12552440862908074,0.4743397858782678,1.3130093319633493
-0.27923398026108714,-0.5766298119732381,-0.6825674042502041,2.1866198931475926,0.6792059598435695,0.6926338579732729,-1.20172006535101,0.094281698308422
-1.111611557289312,0.6765081672634934,-0.7152943712296774,-0.7674836254698524,-0.8623795260545594,-0.972924123066813,-0.9211618378608628,-1.520612547247493
0.632485271928389,-1.1811923034726646,1.3680225767922685,-1.3785113120721186,0.9937787835425522,-0.15763138105290353,0.27266016479049454,3.0890583909994667
0.92286922486855,-1.2351131537679807,1.2493186260952396,0.8295589228602436,-0.5657637412674722,-1.6298235934004723,1.6448649621548588,0.33081876669180077
0.6194656073217543,-0.5960320809036518,-0.9647007232467375,-0.9284390936028439,1.4233470778293684,-0.05474604206463253,-0.9883994231769596,-0.6781315397406701
0.7337184452562733,0.963199193081018,-1.4664826553563772,1.962699369611333,0.14315379774611703,-0.4020616970436097,0.12816189599051422,0.8857505557133835
-0.6205613841815832,-0.8228268899245581,-0.23278233102722493,-0.35356446065466307,-0.2059121007033517,-0.09388533440012437,-1.8827965973829248,0.20905752639884131
-0.1528493838156315,0.6005414050678479,-0.7798158175315966,0.5233812164433035,1.1096544639132724,0.19968223484093425,-0.04793639422647082,-0.30110955160929176
0.6328099471205209,-0.6993776204926744,0.49301360032509844,-0.8333895440352218,1.565755214893889,0.29051572382177954,0.5451316116853776,0.5766545503813353
0.920868984706848,-1.081768006421936,-0.49073196354001136,0.23480267754376005,-0.4599004818263459,1.2770608613599324,-0.721265026752499,-1.2252603517024607
1.170651748490014,-0.7007477823911059,0.45272000395634354,-1.147932356343889,-0.6286024276114739,1.2940973521014913,-0.9165537817498837,2.4378716274085295
-1.0454514582732386,-0.2832414008363771,2.6606485443005123,-0.24356251962959907,0.24668536868825386,-0.9063846648781239,-0.7855738098100303,1.0433776402023875
1.4541998813628403,-0.45708311938587476,-1.4394309698777257,1.4276015626283762,0.21220088094065967,0.46923090793659916,0.34165069411805365,2.3177418955424653
-0.4938618343715065,-0.3482195693345411,1.8692940767216517,-0.8698997655930287,1.093919151988359,0.9245673088415999,1.3339124954529955,-0.9564855337086334
0.42945639920956674,-0.8772466351404724,2.1411068842974217,-1.3546256861226729,0.4548654142187927,0.31877441425358816,-0.2237767180656548,-0.8766601664868663
-0.15098758810052085,-0.6178382949214074,0.13828036741443375,-1.599850243664956,-1.4215740050601942,1.412747526897245,-1.5548510238996704,-0.10131257052625425
0.6821071417747518,-0.7074281545244455,-0.9882582225340512,0.07593192324999959,2.044687040903288,-0.759063560444114,-0.2361568901419536,-0.8058875359761979
1.4282701115756664,-1.895608405376451,-0.17767650905361038,0.3613890790027948,1.570779899217716,1.187066842041268,0.39629634058271024,1.191663016126437
-0.2638421757392609,1.2035837262034312,-0.42070331672577194,0.3316636900312535,-0.9873698897942789,0.6717457675286093,0.535032550188663,-0.25543962356386934
0.6163229986106995,-1.4543126718132644,-0.9479961074163805,-0.7538003187121444,1.1377187620303908,1.5993611015312326,-0.654274472871738,-0.6813616384673541
0.9272765637843252,0.26295991433739396,-0.2940910154738635,-0.6369620314766112,-0.2906576361162296,-0.1502513311618909,-0.23985024256658646,0.5805963351544795
0.7955479862225788,1.391545243090958,2.4136192066064033,0.6581787903364612,2.322316664640881,0.047622450783895084,-0.30271373406388885,1.6034841667774296
-0.44574807641391034,1.57735303553846,-0.10344664765235602,-0.18223260229504654,0.24268991576874321,0.23946983905360375,-0.8199697926989774,-0.9383398707285276
-0.8470976059696426,-1.4949274782349025,-0.15770986618857594,-0.5744250844552711,0.5320073371708034,0.6563735462564284,-0.6212881754335591,-0.038986948786827506
0.011004198679328997,-0.9241609007607179,0.8343622281502617,0.8982648292396866,0.9337003888270125,0.686644129632289,-0.18933245721308878,0.4118271500025424
-0.5376045568541842,-0.47920795185346504,-0.8357409913599807,1.3272304974281095,0.3843311151054967,-1.0530172670718834,-1.4529658792489206,0.7258933621477058
-0.2730079131130773,-0.39917609862457804,-1.3772314833715693,1.0544087325380407,-0.3347155697496795,-0.9352047516379322,-1.1860360057749249,-0.37803535254150505
-1.110860886795614,1.7145728336093957,0.03780075375770038,0.13441365889515383,0.41490645634377643,-0.5467468036880544,1.879385692835771,1.3557427156447353
-0.22128617696885547,-2.5919058596996245,1.4431526862350668,1.449142421110551,-0.4396027117147931,0.8798091545005332,-1.1433996201801468,-0.2188746923722474
-0.8487497208279735,-0.4964407837361308,2.04883796129418,0.1630309770100697,0.6600483263350144,-1.024205072796016,1.0878819912343278,-0.9656053089391881
0.7758356811215463,0.9834139136376784,-1.641183684232665,0.7480749102101213,-1.2878303029583862,-0.09108882805186243,-1.4389014895725671,2.587145210445339
-0.23605258201597554,0.36017175396263834,1.0307996413377527,-0.41280425251484376,-1.327033787062747,-0.17640080535118685,-0.4698185474653952,-1.4281264919684358
0.9443001886763336,-0.6033403200836118,-0.5555597098003718,0.39569191570680023,-1.0175406947289003,2.494346088716199,1.478749460709517,-0.8726829441157752
-1.695081553819029,-2.291504636927022,-0.324772888544525,0.35322101473933304,1.1352303367337313,1.4009094910986961,2.2227109782992827,0.11714365409515173
0.32494449411847465,-1.0267383465759152,-0.6980732274606418,-2.5298247358089694,-0.16025562189122783,-1.4215853896660684,0.09019760174373408,-0.5375617990783261
0.8429597067409611,-0.5343320262759799,-1.0326983698309011,0.3306479822542789,-0.39915443743606444,-0.05508634833645188,-0.9315728525669306,-0.26569479167786153
0.9862608067058936,0.9811711601015978,1.462807815877656,-1.1484832785202517,-0.36928473092750663,0.5754882149301672,1.0815432332334332,-1.1575949954586902
-0.5850519066622735,0.13167764964497125,-1.5445163906070065,0.9011588128448121,-0.11701690841133336,-0.7008926827303233,1.0728385481851972,0.986487142455169
1.3411227375492405,0.6662013300105142,-0.3748818491906932,-0.20328559114856096,-0.3435579152810987,0.6803043354159174,0.5741179296009938,-2.2015821802826534
-0.37798646037775974,0.40436584273807713,-0.9042905584992014,0.337892586076443,1.444735110080048,0.7667216485174098,0.3391355366948412,1.097313893269428
0.6931092369190233,0.8382612002826826,0.2555459968383902,0.8748816905895372,-0.05088952898582368,1.0244380008427232,-0.6238966129769241,0.4954545029566555
-0.8068606943376329,0.09919871113383423,-1.0680428548205751,-1.2972597891820037,1.1630373756363066,-1.1833329815114577,-0.16594126822539995,1.5776477291192532
0.07133824396511568,-0.7847478122876177,0.055149702345612145,-0.0019266347242936415,-0.49773266151783263,-1.1368850070868497,-1.5708076280587249,0.1323103984053843
0.718559799961639,0.41794740604642217,-0.16072437895120054,0.2500075161742506,1.1507590465305289,1.9099464872054626,2.044782488016922,-0.5034052652637041
0.1890437812130467,-0.10317455809709218,-1.8076111623411504,-1.8379037569217853,0.297084264748992,-0.14850826574829376,-0.34689957600874716,2.7868328706285825
1.0050473706815801,-0.049440052531354764,0.21351487421427406,-0.29050835609429304,1.2663040490501225,0.690941321041016,-0.5827867036225091,-0.7524192740168025
-0.7489028767005581,0.21897336952483057,-0.7044596445399604,2.552198677230638,2.427996484771194,-2.2431089110981093,0.7811022544066556,0.33257662779458186
-0.6483718845549213,0.3404324083501408,-0.8318930953566046,-0.30512584490601413,-1.1558403792656329,2.36585524531306,-0.440888114768131,0.13622525453343384
-0.3463370336919846,-0.6478597682266937,0.4197101848771163,0.025436439458199872,-1.0865341258982502,0.8262438152172636,0.2836726361953691,0.0007911277579235102
0.669637570629534,-0.33981291847558925,-0.6898826813157392,-1.353478653452779,0.0071901796119193855,0.03538451301662865,0.9212002596286795,0.20373555757140613
1.0922867645330785,-0.2618753670519151,-0.8073528322661431,-0.6505457821003263,0.885214225691547,-0.6186637128781949,-0.3294000470002866,0.29412322109912775
-0.6181944343645929,-0.655708876843251,1.2702305584367433,-0.8377954955589375,0.7635783478156178,1.4578769158224183,-1.489469498057815,-0.2112227304800585
-0.12235111130828794,0.369563047249352,0.985543318693901,-0.7054195202482613,-0.5233354166307564,-0.013753487970810776,0.04021283775838168,-0.2848758052239682
-0.26920227035854016,-0.18743132877913696,0.45861539974388815,-0.036619104623456085,1.129934765461357,0.32502225878327545,0.7546931809037065,1.0696007231560303
0.1961429084278329,0.3154021634090042,-2.065436252295475,-2.066940279226887,-1.530507660203116,-0.3054356221389085,1.2911450701271587,-0.6297453923278374
-0.30157902985449125,0.32368940020907044,0.4690743101215315,-0.3953546251875865,0.29119175278620063,1.29389559843435,-0.6399811707724877,-2.2375266019406377
0.6922690295997386,1.722505549859868,-0.3584033441204193,0.39946411179984814,-0.40592872360557586,0.010865244531403681,0.5113585299262514,-0.5939118143184567
-0.628402804319376,0.8168313216211472,-0.17537442146091928,-0.7556793396273541,1.3140464117312076,0.49203344043305924,1.0203372592502638,-0.7201392165480934
0.953540097162969,0.3978928695891149,0.934888622794887,0.02195856925988289,-0.6138039104459249,-1.5315297347006351,2.1152632767900177,0.5504654524040299
-0.9840207254120906,0.9157632102937641,-0.4319911069334063,-0.29168897761959345,-0.856511429018212,-0.6772017471396493,-0.16369942381042207,-0.4441287463637303
-1.1935012460087142,-1.60766500918843,0.332567747355462,-1.3881759300134697,0.6237177149616863,-0.30056536033309716,-1.6918129282296095,0.32884106864654195
-1.2118848016961667,1.4083815189843565,0.2938717847699869,1.3138658588278815,-0.2219998605482022,-2.5082332031368746,0.26357931244744404,0.8748930714313722
-1.2116240595629721,-2.160472585821475,0.015389886816489812,-0.02185906933327452,1.0659331948403283,-0.07580833817316543,-0.7684081176396377,1.591440281555068
-2.114235831305867,0.2251213981780395,0.38130992773638184,0.8599401367556564,1.3655707373689638,-1.2512384828948002,0.21817008306269614,1.0347081935644413
0.6406634498070365,0.12482401051907445,-0.673785624655978,0.1426692794771675,0.3357671960665671,-2.3903889486284093,-0.30001469907584694,-0.6149583590388046
0.811363240727377,-1.243022298951702,-0.12815262057612992,-1.0181553545811117,-1.9591857550725569,-0.2522412980330809,0.15540493886319914,1.0233672965080962
-0.4565497583490751,0.9474979557238734,0.7932021298046334,-0.29500274469670096,0.36835297357934843,0.8429332399139997,0.17123741546522334,-0.7128075236571886
0.7424220764111085,-1.2627144741403584,-0.3486141702667079,-1.4397753718957882,0.20179275697728313,-0.7877455554187323,1.2668948133332467,0.14231631548786397
0.7867765719808503,0.8284765701230162,0.8515029790033937,0.3020207324137356,0.39700386191312514,-0.19013942898290095,-0.461686273874737,-1.420116657170695
-1.1472540437721945,0.9173538149859227,2.3619125220067043,-1.3703743284233054,-1.4793142822601377,0.6910451381617727,-1.7492913830094725,-0.38892724930808886
-0.275698427358613,-0.4474566231103485,-1.6843122565441553,0.27450783814693236,0.07585862360293372,-1.2383294123809523,-0.4796470120157115,-0.04337059829529531
1.7509587698808262,1.4962416059011163,-0.6452610829749366,2.659589405580656,-1.6408842330273972,0.32216389123594175,-0.0915802107162734,-0.7570626937107897
-1.174361673059593,0.9298791779817727,1.5457005689063388,0.11352346823762743,-0.48808724114832985,-0.6808162778996072,0.6038388558960635,-0.5623201413193137
0.34957457376251494,-0.36666471807926587,-0.2672103618769339,1.1923378017828687,-0.40056156410673777,-0.9838848172490423,0.05286626561483937,-0.5885892467587814
-0.3408511173681654,0.8307459523013585,0.45537579076388085,-1.3628869694202004,0.8171691148272041,-0.777052544227074,-1.0516924623169677,0.7882376258934384
1.2620001463310573,-0.9627593887241611,0.5131609552866545,-1.926867974293942,0.3719695741975982,-0.7676016074104315,-0.37759571084337684,-0.7252120547202765
-0.1370877412708031,1.9401256022126647,-1.4010732094721845,1.141278216993452,-0.6429035736014013,-0.5844751591027162,0.039981386477771025,0.7534043913017118
-1.5140469741288372,-0.7333707447204257,-0.27653989110102034,-1.3479424027174425,-1.4413895396028789,1.2360417562999513,0.13896089332492118,-0.27381526346959917
1.2762605901573068,-0.5668507270404802,0.5165125776444968,0.7003076288618789,0.17209901848784545,0.872600930440688,-0.043588143720609714,-0.5436696721031451
0.73439396198458,-1.4499155159306973,0.058979220819390096,0.5308927487002298,-0.4475544931147636,0.1258377267905771,-0.1746613973857888,-0.2765911098628868
0.20811051023535623,-1.6021379657500603,-1.1419485652696801,-0.15272196528242674,1.351713449035841,1.1016282437024592,0.3773074810097085,-0.21312291365292999
1.318584795536066,-0.11439729912409623,0.21332311724519457,-0.750335664257086,0.7715182172194324,0.6920335259833339,-0.01709265210206097,1.0872273983161953
0.1259712620289074,0.6557021514450302,1.0776315007300168,-1.897010025532486,0.3331371896322647,-0.6875282881178126,1.3583712496818627,1.4344151505326777
-0.32976852566850257,-0.8581485298769697,-0.13863209054432982,0.10594562053035171,0.5564357207649276,-1.1147126421541793,0.5687815960776743,1.0556863891022517
-0.9030657712312978,0.26436540178924484,-1.2003686052242313,-1.1392266009727794,0.08854654598416488,1.5042353673042104,-1.4290157756937245,-1.438648785662847
0.826529460496758,0.622618893513749,-0.37044644700297713,-0.05169638064814553,-0.15500106556767929,-0.6479922150182214,0.2611340668789467,0.5039880575347632
-0.2210147644695188,-1.3461946711687922,-0.47993275895221643,-0.1789748239223922,1.2391676593882335,-0.8821697665862012,0.5354080693809985,0.08930729590230568
0.1691232747331893,-1.7071440351602545,0.6327278631134763,-0.4947308069251243,-0.03691769703934014,-0.12600089103316917,-2.465462121668702,-1.6244169071274084
1.333627189606924,1.1751090229268202,-1.194427829710953,0.3028070578518814,-0.4389684640348761,-1.5427431450751268,1.0363876908672118,-0.406963901857481
0.1357619271305057,0.6701664166062091,-0.11479018996955888,0.014695185145558867,-0.13202592283136644,-0.46684861697507457,0.41047512576504497,0.15562457711540315
0.8964517480512225,1.3133109635588665,0.9520972790612138,0.6351990679841012,0.9832381081715758,-0.036204178212638265,-0.8538294095777857,0.3988157939402999
-1.0441583242606722,0.01178905615046554,-0.8260196195041377,-0.9826063410481584,-1.5695394044475266,-0.8770815260314504,0.023508129786191812,-0.62846525711989
1.6478049099989867,0.8932562177452524,0.003575956792873714,-0.17116379751701855,-0.3623106774341902,0.9704965243449822,-2.425648669105233,-0.2209643275264452
0.777814045847149,0.8323289260625302,-0.6191063869704948,-0.06060644388635517,-0.8852003322349314,-0.03665349625970119,-1.4160944281563337,-0.2618445890336626
-0.9699705035939358,-0.6918376822431744,1.4352213662498094,-0.31290778661112373,-0.12325568672224392,0.497344660525222,1.0230667843182188,0.19939412442297832
-0.7227694430558531,-0.6138712822751761,0.04284889024031023,-1.0911645184274983,1.6200331323574009,-0.31257765771751367,1.3433433542423363,0.07179162907297482
-0.34902127248071513,-1.3456662914711621,-0.2903693793217715,-0.4948393100450377,-1.4620550794526483,-0.6638865477730823,-1.4671503519210114,-0.007401039500220612
0.5045394650569984,-1.272620546270938,0.4182626315254418,-1.0183427566943868,0.19024090436211538,-1.502126158611565,-0.9330766386612516,-0.3781001838149788
1.1717556140587992,-0.34585613481333727,0.023703685478578842,0.4702027974032524,-0.7306304651541311,0.5387626459794651,-0.8309273857250449,-0.418285451886011
0.11273287599559777,0.7515430958646955,0.6019115649437193,0.44520631553320267,1.104440890800692,0.6728816095803218,0.6517607539308676,-0.7740597955565824
0.09249955643031306,1.2253145550910152,-0.22716556321288636,1.7567135164154397,-0.38946175334183536,0.21049675483891744,0.33119204404180724,0.6740708307629634
-1.189466065646314,-0.496191488514036,-0.6589417315784108,-1.3543879544458095,0.5261870428632165,0.5751985448529459,0.38673688533021544,-1.3415612572359088
0.32324397995746307,1.3036405630811707,0.5800251397197452,-1.157912429863985,0.20320123964058714,2.3957187080703606,-0.7491203100561228,0.4716552873694187
-0.3251476225427006,-0.08092064635528882,1.011786747429494,0.9865199508088497,-0.25606925968163363,-0.05230777474183986,-0.8988441433866924,-1.3372042813067075
2.084287788679158,1.5428424947751769,-1.7775312181239724,1.645377359822507,1.6654767591801851,0.2459635165401508,0.6423302834337055,0.03754270517126865
0.5738031615526561,-1.301544160356356,0.9210262261321229,1.0809459060248232,1.5920535299397054,-0.6330238463732892,0.020903168780202302,0.6796378970275965
-1.5783335307332895,-0.5406070964851387,0.6099531102883713,0.04555555795183319,-1.2099720142458465,0.014729855271686089,0.6668314354533729,-0.5201220638036353
-0.08221337088732857,0.7245983312993458,-1.5046634058841457,-0.16597153424957625,-0.7039463936807338,-0.03967626895433642,-1.087343062905397,0.5233375529878938
-1.5927188591611154,-0.09757621711887615,-0.9337386893213079,-0.6021072530204962,0.2934688488586433,-0.6174194030464196,-1.138500413631533,-0.3865947865179273
-0.0927841888371224,0.7310017342959926,-0.5879492182865036,0.23980942583483342,0.2446397881987065,-0.1361804379934714,-1.2648580687982385,0.025551024204366616
-1.8528964563757,0.4917544449880116,-0.39345678109126214,1.3204326584594157,-1.3237649963923892,1.439536731817323,1.152319640033531,-0.597469555334408
0.11873340493687282,-0.27881799586987194,0.11369689999253155,-0.7272179543091223,-0.25533629205114156,-0.7496461960923261,-1.3926462135087179,0.07460828824777926
-1.7342644131012082,0.8444128509935154,0.02943914695394122,-0.4015463545371588,-0.9868289107190868,0.5087871868106104,-0.5390299982074966,-3.26548483094856
-1.2188286930265197,-0.6225654718759993,0.4039634273000294,0.5590733432189255,0.6244424386138397,-0.5233006982705001,-1.5417192441607013,0.07653926639514044
-0.3633167333871565,-0.837721536772098,-2.5231063086669505,1.6235638609390932,2.136810311619172,-1.0819793907127953,-2.0261804539857238,0.23122765330874803
-1.7671044878131261,1.318583579639139,0.6370864082382389,0.05357083979434235,0.1374786940161624,0.506951520788659,0.06984522600975789,0.9140904679043218
0.3048655368722142,0.32785709018968945,-0.81882031164876,-1.0389604847976726,1.0911929634366977,-1.7040701954499327,1.144070894842466,-0.5456616882059515
0.3633506458672657,1.058485131947719,0.10928440735940168,0.40383041338469094,0.20250263368139143,0.542310639996618,-2.0757011776042553,-0.9181397587711336
-0.43047547417874327,0.784477513866433,0.668436891865793,0.5755667323787399,0.004738672001655342,0.01785692791622205,0.6615822563547055,0.9007461641454118
0.4812078168578646,-1.4025405268535296,0.5703497401405526,0.6980043525709116,-0.38488442943708867,0.24863031794005827,-0.49633944583010037,-0.15960350772040421
-0.2779941063339899,0.9158146092049003,-0.5216381043652177,-1.3109852407815927,0.18730799564240816,-0.15911270389295537,-0.1840427024522883,-1.196778506344547
-0.3160086181170287,-1.0665814651464065,1.632856072598517,0.16830245082980694,-0.48384965954171216,-0.6083018433648659,-0.2845613874015289,-0.4030814499403479
0.28343768982965684,0.4651203195641047,-0.18255851205817783,-0.2153577850029135,-0.284204467741597,0.31569906232155354,-0.24112587071374486,-0.2901149633754225
-0.7160993125971448,0.0790119737708731,-0.5539743789168091,0.6417148124505,0.4481458715617915,1.9977390771658567,0.4895952541474333,-0.2500151030522353
0.6560021574718432,0.3899316035936185,1.4041718346755554,0.33961448248180853,-0.9126637824179481,-2.0002494158904525,0.49256056299939116,0.5646683426852989
0.4100506208620127,-0.5868052839011972,1.1031366444756239,-2.0042667375463687,-0.40902503442060445,1.6659840178678702,-1.2247673862465083,1.3233039815839227
1.2360199535521201,-0.3115172398379678,1.0455490141632517,0.5442628778405593,0.9188701320881086,-0.5012311266781904,0.013785135426299137,1.0463659472796187
0.11711695075035972,-0.9430273907917033,1.5875306819209745,0.23199970970207973,-0.004578026929043734,-1.1385345264086884,-0.4301528837983837,-0.6052673476060916
0.2880593835758123,0.4910198057076199,0.061719087412680375,0.06581683381237392,0.5549277213270005,0.4462074663453898,1.0929877804890775,0.16566304660872858
-0.7676359632500841,3.246324172834467,1.2900301539771348,-0.911543498684283,-0.6045485556648708,0.20278447478038453,-0.26033408321115054,-0.7881027874197652
1.0855813011809659,0.5041157227249929,0.627918196210083,0.15182170916608212,1.2025775259242881,-0.6842332051071808,-0.5979824045715793,0.5117644212442553
-0.9891431163771814,-0.00306960727245996,-0.7381697861055673,-1.6551078258509306,0.06213507809196402,-0.25873953068825056,-0.7621213239065877,-0.02128662214904682
-1.3665690153559293,-0.8646920594143364,-0.02339573373697029,-0.27939999234101204,1.3280027316416148,0.4164203398709206,0.8643584081206414,-0.6356078008475188
-1.8307615456802826,-0.4533966579476383,-1.5103643244743976,0.383748188488404,1.8132365134882664,-0.5364574215554033,2.190997009924906,0.4563618273684358
1.8762629636956227,-0.9822408913669084,-0.2768768871651594,-2.4577838358915898,-0.6360615534522374,-0.3832792666659469,1.5006623698642436,0.686290276901351
0.6584722120754263,1.0557736588838795,-1.4682361160171327,0.3713495631468324,-1.7777803545334385,0.5783418520899485,-1.1041547936204068,-1.955350120324583
-0.31539481108872913,0.2555874950508847,1.7430236241686616,0.7832152679948007,1.059318864262558,-0.09318632680018336,1.0070873435309056,-0.5054093292631425
-0.4330712095956445,-0.0437337482756196,-0.3007734220278032,-0.866672506123394,-0.9303565449668445,0.708307354390081,-1.4866858711247346,0.7128463250948732
0.6171818125069148,0.8554336105315355,-1.2723864162634921,0.6830812006581019,-0.23523282501827564,0.6949513030677308,0.6586276082122922,0.717730421828287
-1.904095505481929,0.6966932792520658,0.04849122356792057,0.09513977207166419,-0.6910048847857763,-0.697762931537407,0.699219633706947,-0.4675009030606726
-0.957841599095368,0.7099923801962756,-1.8015646684818682,0.694754004663829,0.29430947694309756,-0.3354402889246011,0.5439864540005527,0.8362998422439436
0.5792525861431279,0.914147010932009,0.8631026932739826,-1.737352157134331,-0.5229820122806975,0.44336965404933254,1.7991882326538098,-0.46072976014545747
-1.4808323196516824,-0.08053758141703755,-0.45449524252245205,-1.267357183989039,0.46471283309256173,-0.31242275276534676,-1.6490935514676335,-0.06984811086595435
0.07153142014103218,0.31558788763454104,-0.6434253584146244,1.0072535663691344,0.49279388226471627,-0.4968538686581529,-0.0025034407759477184,0.46333770271045177
-0.36163364843493023,-0.3970316108565894,-1.0611728278066217,-0.018859365214564393,-0.4739331092108202,-0.18496690695709544,0.87647200824939,-1.354838526721645
0.1133256006461724,-1.0581282038918765,0.9369085396740889,-0.26670795894399835,0.25482231845314673,-0.6245782563761363,0.8103373233888901,0.3980153762708731
-0.10739680643409652,-0.11509707897172068,-0.37921619417457153,-1.5899263637947334,-0.019005399716833793,-0.15976648346290234,-1.656729936368327,0.5049839336300272
0.01038306185525164,1.4588147917012868,-0.3184460110727541,-1.8579896393773436,1.1405440805014513,-1.1520442492329135,-1.4085354716129128,-0.9961480087410628
-0.23667659362921079,0.013704033601298968,2.1142757777087606,-0.9790902223406968,-0.07287567873887896,-2.2188561881960376,-1.171280112655758,-0.12192947386836306
0.7522960941498351,1.8444525743522415,0.900446981172819,-0.5165952659755733,0.08513859482228929,0.6479551630353605,0.38058029569967844,1.603120885554138
-0.40891468299175204,-2.3891865185696513,-0.5335659019618109,0.42417534586766487,0.4321952446547812,-1.0407233246866974,-0.5843620326406401,-0.49832941757632365
-1.2795502090456965,0.32587229655200484,-0.254020975138293,1.0051372119538742,0.1200786096601957,2.146562085970428,-0.29415309733190076,-1.6786884450904105
-0.37536410102976264,0.7408369301560487,0.8001171811220548,-2.2192940605101086,0.6877313092047259,1.1771219450837256,1.3338860198888736,-0.6345538548962264
0.46980918635254787,-1.0451606110070264,0.4863466469243768,0.9975131424848626,0.9834814763703287,-0.5087910306056038,-0.0578095644656779,-0.36386458502814195
-0.7270253726168151,-0.13801509214656277,0.362906826913626,0.2144866679424098,0.2138344579830316,0.11044341160410441,-0.8467445597904094,2.1821483895029745
0.8884371786891898,1.6080301253872573,-0.7448863089669665,-0.12373926102498427,-0.15808000300667746,1.194917334710972,1.7587993123450392,-0.9233862015045975
0.39494880595387793,0.21540588644195097,-0.8320547882846019,0.23085036228221806,1.5596415717095267,-0.014817858806689338,0.8516729359756985,0.3470493080131651
-0.14414993428687645,2.157360951948682,-1.4521310617759144,-0.3492932147395599,0.1781176318765023,0.8786618861343045,-0.5296301738936767,-0.3545773218320645
-1.0929836005115146,0.25398961738194087,0.13196432437292718,-0.217807939059981,-0.3899779248308674,0.9712696534070578,3.0598046129203658,0.5021378891289332
-0.5845987998209443,-1.4627818562353727,-0.9501261804508616,-0.007404087456177462,-1.0378665763140211,0.057491905561428365,0.8860245319329094,-0.2836596234530316
0.4991623857524536,-0.46572122846109915,-1.0121277450099149,-1.5941488712293304,0.15221721113317857,0.3041348191585455,-0.24244550900663173,0.03790522675873532
-0.3046958558080961,0.16982140689966063,-0.4183473448676369,-1.1220810037468658,-0.08042974571852726,0.20871261013192122,0.0013550543883079985,0.8368404275470402
1.7817940333965134,0.925408802012789,2.4900657413869336,0.42770770775625716,0.8786381207494235,0.4480247629605187,-0.07162765827644073,1.020408175516275
0.33087271798705353,1.3789240365384623,1.036729272446579,-0.5263002866706851,1.123134930269365,-0.9453043009951153,-2.547754082994541,1.549610417533011
0.7419812349598666,1.4903536715610417,-0.585617558912184,-0.9304302812911316,1.011369943444713,0.8294554532779805,0.848483005116157,-0.6360460046992489
0.45824791581091695,-0.33968581405837406,-0.6942949515718599,1.2159491600855787,0.7123687212137475,-1.0303922972616388,-0.36083923303065946,1.5903462410672817
-0.056784103084919484,0.5768530701336131,-1.148608558169993,-0.7768880116994787,1.0178916144347054,-0.6730712260869282,-0.06666739046222055,-0.9153885340494362
1.3932708401221945,0.18024242784051692,1.430423651434766,-0.8204471427495243,-1.1546610663903725,-1.3546941362940323,0.2174244594006067,0.5375667652538808
1.507938490245123,-1.4658683506363541,-0.21452269351472264,-0.6161246258838549,-1.8381503871885012,-1.4482669558954366,-0.4670112561473001,0.5103736992251469
-0.36936452076114235,1.295169013493015,0.1376946752351825,-2.0146232610066406,1.1523626201933732,0.9884568595592567,1.9234277022810948,0.9028532779518829
-2.478644737422951,0.07365119917198298,-1.5775400216926045,1.0925751161758281,1.200242836478439,-0.33530124747117673,0.3823027742187375,0.9386226704260799
0.88248595529231,0.3218045470863772,1.7901734785452477,-0.0016398205208440525,-0.6205157664539366,0.2525735599138674,-1.844173014926705,1.0502148047125612
-1.8711965062849152,0.7652674188347348,-1.941039402289373,-0.6602597302016227,0.5165392362587516,0.5003266454392201,0.08204925500382759,0.6281884160635393
-0.04831517036277952,-0.3646221753686936,-0.6309784516016963,-0.40286753400562136,1.348697077616103,0.9737921234669572,0.004584085744374547,0.0777728266446498
0.17550034278287624,-0.48818680667630715,2.1322047203176777,0.8287029012362753,-1.7691523882708147,-0.5579259911434677,-0.4189667419537097,-0.5398335490679773
-0.8116628533996393,-1.4967651267854847,1.344927688550492,-0.7413683255076169,1.480488780902285,-1.2839127617827089,-0.5700269345765162,-0.31921280864249874
-2.086710355428191,0.13459457523307566,-1.1953127440535163,0.18906689677401756,-0.5669262557490636,0.060279497752972325,-0.026760155570822283,0.20775390104097766
1.0658578545121336,-0.8706883929398488,0.8470196471163849,0.30645934824360915,-0.31151588805095537,0.9275933292663243,-0.2794623154735865,-0.24163312903744266
1.0673802857534047,-0.03384965526674911,-2.1398595177685342,-1.2813033170835868,-0.6141937076584076,0.3472169942389549,-0.22733158024871786,-0.22348105132842677
0.619971535999834,-0.1660507105244509,1.3028805370499847,0.3201460352800333,-1.14219585646042,1.1498745470949536,-0.47013264710429337,-0.4003451547183957
1.5946201021616935,-1.3971323747751323,0.39197549349473104,-0.30792731700780285,-1.4013381926375952,-0.5343949057015758,-0.24375020703688952,-1.2799657740059998
0.7008649184263823,-0.37985822041807105,2.7069837180537877,-0.6572192758965265,2.215203122743088,-0.09625343560617103,0.004339923433611778,0.06979845882061336
-0.5897846392659717,-2.6586826627069486,0.3581314449669603,-0.6687304506207159,0.3543546925220383,0.43354667215895587,0.3246289590498085,0.13108996385139113
-0.816579801387714,0.606071742919572,1.3518670661931727,-0.21281986002638054,0.4684513554728331,-1.5783637480882835,-0.03429060347865798,1.0031609263944194
-0.5336025464288907,0.7392709393483047,0.57784023141583,0.1927612662666894,-0.6814520951311643,0.6673169455510356,0.49638889313229995,-0.6794753157635076
-0.6839557578500227,-1.4035433236785695,-0.6341828532398257,-0.1322801059548424,0.4525223754875062,-0.4092295945534681,0.0709930307922323,-1.1082102741936088
1.6060519857711433,0.5019943007669342,-1.6431869329053141,-2.13237414492695,1.3003390961087196,-0.4284853811833906,-0.2825829265233587,0.1519815529813123
0.35437599524012514,-1.3624652920637579,-1.5924470692728925,-0.9621094584780834,-1.627105567702752,1.77025711720164,0.7063841261515779,-1.4254610601498972
-0.822945190327087,1.032165286840393,0.21706912720097035,-1.2824205930065173,-0.26385359795827373,0.6372012760244744,0.06736098415144239,0.044014560208670846
0.43933371744407507,-0.176886637616638,0.3618457164740084,0.7329560970401284,-0.9616135638012222,0.5484228723863102,0.521498644821679,0.15921959359628995
0.07017229165619375,1.5450569854549998,-1.0082611004053041,1.0963765345786078,1.5970045907596202,-0.6765352537086685,0.19617585137035576,0.6909479152066099
0.4669872382999765,-0.12469802370767409,0.41449482487243483,-1.8505185402537525,1.8960195550619994,-0.7088836113681972,-1.4273609680784602,-0.6533306528495685
0.4462050246800762,-0.49734582432299157,-1.5490951749426087,-0.3895509681347864,2.0922185155249955,1.0937695671282408,-0.07935564414083172,-0.8897327877500824
-0.3131299112635859,0.7020109975850369,-0.525368971441664,-0.04229907987256499,-0.07826975198509194,1.5314759785279277,-2.8582307259272652,2.2955761904544048
0.09563639700521105,-1.8332766490973376,0.15406894458116557,1.928043619263733,0.5718760219373413,0.45742498269259324,-1.8400308348245025,-0.28969817220526994
-0.48634070525213613,1.182112297321928,-1.1330034506831974,-0.8800924182323233,-1.6574798840779015,0.27732568366235644,1.2684427859263576,-0.12849299601295097
0.241726012103744,1.2308958823206049,-0.07882204885259267,-0.8171229458485619,0.33916418304596446,0.5046893846178583,-0.8128307711353767,1.1481152758956508
1.002322892101437,0.8901429422002086,-0.11646284786203238,0.7647073449273895,-0.1310040543866421,0.5868210266635944,1.3375929709148913,0.9042728613388358
0.7828658407918943,-0.16686783479091927,0.675994011123644,-0.7383787723665349,1.4385563796966951,0.06802149841017324,1.1163039642073114,-0.6759193150249984
0.3545862559899785,1.3100508904849966,0.06280156455232669,0.2956195719100325,-1.0179731079854546,-1.068605500290852,-1.5465989030397767,0.29569531132324706
0.6034816907659699,0.03535932862673596,-0.38761122437681195,-0.3787699836750655,1.812543457784302,0.6538468781090057,0.9972205366165652,-1.0281964737413332
-0.44236682983732184,0.1818284758043833,0.2076622077401712,0.4510617817710287,1.8112723246671498,-1.218538146670146,1.8693431888691834,1.5204581180849692
-0.9973808256119503,-0.8461944233780985,1.5552918777637195,1.1533764190930305,0.48488639014909435,1.6058581895935713,0.5396138607479098,3.286038901904181
0.03372580902873416,-0.9042514161070151,0.09164295341698138,3.3404853404151615,-0.5885892713956359,-1.4393071392112438,-0.3818586097658584,0.6409014065054083
-0.8353679637586173,1.318944506634018,-0.1445905530116171,0.45126119019651667,-0.13209732341831726,0.48062497390825143,-2.0097474599687546,1.581886687504008
0.29179258462835395,-1.3297617318803596,0.09575483172021214,2.0791784663852866,-0.5618328819960279,-0.05068582153502682,0.2694345576714086,0.8750170258180713
-0.457343077885749,0.5855578934193392,-0.43123233230906755,-1.4865352163033099,-0.9791135409396905,0.5378191672259044,0.09219457502520388,0.9547875368515447
-0.964716291845447,-1.4579148758698959,-0.402887416433045,-1.0360595274788562,-0.4316875484161172,-0.7400998331570782,-0.8911880727025527,0.7025929474721598
-1.9713458467779794,-0.6363013328485116,0.624292604887867,0.9469782436023432,-2.7111863653862645,-0.017732623319371914,-0.41830404739411525,0.7477379360025947
-1.9211897719033022,0.5436459266267161,-1.3163038612170228,0.5992169319973176,0.026828483361544846,0.9061952865029327,-0.2428363234010068,-0.7303365809082151
-1.3156576141738607,1.7184156832518356,-1.9509264210418966,-1.205475723088622,0.4287627739022101,0.18625396893592702,0.23321228826640075,0.814126526181912
0.2633127332018611,0.8801796302361464,-0.12621713012915495,1.8316354706211895,-0.05476731947734788,1.4070569928146088,-0.8781460695744991,0.9175760175920739
-1.039891634429044,-0.8134154949190823,-0.14605077959881485,-0.34531890533795184,2.0391113950615685,-0.3829360546814001,2.3629990278023447,0.8263380672252089
0.4152993627975802,-0.3231993829840461,0.8569814038889072,0.6022547571976502,-0.426843499082783,-1.4663015288619776,0.7598575711852124,-1.1959000253649195
1.4095150463409598,0.7221516687751272,0.7990070067696158,-0.4197851014743413,-0.8396109852470415,0.6532248625693688,-0.9269351832222291,1.8228641602896356
0.3912142631417698,1.2314076695079017,-0.7411214879407558,0.36565664814139043,0.6131569959379424,1.4475002600128313,1.7050753625017325,-0.17994079000842353
0.1390485986250787,0.4795483971766048,0.26267761748539803,1.20252527908576,0.1842222251640764,-0.5567288274642895,0.23313165869843563,1.5532066027486255
-0.028316489842014656,-0.23578082855180305,0.9947037455483867,-0.17011244393254865,1.1363954443980964,0.5491811361571537,0.0855841504661038,-1.1289185762519938
1.1371360877153733,1.3747883766327578,-0.9463939365400027,0.24556880299411604,-0.6319533498246119,-0.5417259504835773,0.9089029059732349,1.4274767852929937
-0.1327539279099347,1.8852166566258899,0.3903779529799934,-1.3490646409389606,0.2999299131912638,-1.2586104733063597,-0.31312518091419694,-0.9054994826239683
-1.3089217026062914,0.5020807758569967,1.0263832863506137,-0.1772591587508653,0.6738654875030946,-1.625020778355934,-0.5028405557609694,1.4151094374940962
-0.4747810573435992,-0.2620960684940991,-1.4164088731816078,0.5283953717775638,-0.8775934047652287,-1.305173943638915,-1.108832762032333,-0.41047253910030906
1.1542120225569352,1.640476320288846,1.4513371602511578,-0.43684510532030996,-0.4362810906406363,0.40173022975613654,0.8022714653456056,-0.2233327975463557
-2.1929423693709444,0.19463942484074498,-0.2899936374149593,-0.1413911577772809,0.4353991160275704,-1.6690819447291856,1.0509715454313198,-1.407837110836988
0.5819237304265029,-1.3746612749239497,0.0843862679938715,1.1648485627350302,-0.6600079968776834,-0.9131297977731128,-0.42393796939223377,1.6104131249583618
-0.9599186662584516,-0.45568291796876575,0.8763290399664951,1.122883969662686,0.9576074838167635,-1.3105138604246012,-2.053722548790633,-0.08953510097631544
0.18013167492586013,0.503751407168098,0.6760064730082341,0.5739148587573074,-0.5389706742560356,-0.29887139270399016,0.216086731185312,-0.17517434862829828
0.4241173822081003,-0.5128746102865226,1.554937898958392,0.7031169687010018,-0.9089100435547395,0.7293572756873604,0.3843261972431966,-0.024030142384990367
-0.12787844831701511,0.4890549837670616,0.8778148480831067,0.2051045885663422,-0.0020053355480817957,0.8656624552064236,0.4476269178385701,-0.6438892603767009
0.6374786435658802,0.47622439586669657,0.4742341309926998,0.595702862509094,-0.07716521636270106,-0.4387210108128557,-0.9550810313218935,-0.3950237845812369
0.4689949501602826,-0.31165363276658414,-1.1822073551741297,1.2641262591639715,1.3481110323958458,0.16634200355508255,-0.14346610148729372,-0.5861020531933775
-0.10278345211549857,0.8012697396006808,0.0038861300163813405,-1.3110278193297615,-1.952575835265518,-0.34390824303587114,0.3744389751627031,0.3519723864992973
0.8502632254458329,-1.880735644130547,0.021036120967156666,0.5491190610031046,-0.39710270331112546,0.7454079380507715,0.3042271412641055,-1.3030654233761934
1.2277478756460236,1.5018619582490484,-0.9735632900522244,-0.582814936831598,-0.42709960252568185,-0.10807913826583508,-1.8300173807541318,0.3117656822827311
0.2730083074540428,-0.5648595921480436,-1.108270801104903,1.6334479538982858,1.0842468548573072,1.7586220282055833,0.48036934031344786,0.3562589412275047
-0.14680014944469288,1.4065304102271243,0.8445728146443359,1.5842119413413034,0.3292957771036071,-1.9507729987737106,-1.0363298458849142,0.17682531189562806
-0.3461799370277026,0.5052909138642278,-0.9646005240805269,-0.6240668655100061,1.034356765426439,-0.036166923759233804,0.18851387956561463,1.002171604918817
1.4373282315412745,1.020856209066483,-0.47658551410557687,-0.6049754941147671,1.1856475536675746,-0.29869946644905865,0.2441446452477345,2.270672692591389
-0.15859157805153193,0.1918807985811782,1.3211883287375088,0.7299142276553897,0.33563006303839094,1.1276614867806025,-0.8208592785715294,-0.8770010419960469
0.13123113285159038,0.43568377507172584,0.48749686240853085,-0.25251457456474113,-1.289019580140192,0.8062670558697609,1.434301946345972,-1.1591870692322102
1.0042432158616539,-0.724078196100332,1.8984513952505173,-0.5937629491696198,0.5735229248790067,0.4887173251937522,-0.6777100827108864,0.5037356128744306
0.4576636533217914,-0.16735058783920748,0.12437010532350358,0.5234892047193931,0.19520926555704032,1.170320511537585,-1.1851702550905314,-1.210791742359811
-0.2742317896232607,0.5009867270858852,-0.19073481165885126,-0.2523161217827039,-1.9759328679819106,-0.019870504234998712,0.9319883598809781,-0.25318947227230215
0.8852186526228087,1.1181838447025345,-0.9209497339701058,-2.124441827740786,-0.3204053257346668,0.9347458573079267,-1.2499492147985611,-0.6328906282350444
-0.46829752146233095,-0.425566220689131,2.49878907991496,1.0205229835154614,0.9103332200058248,-0.33785280101084864,0.3396538457023568,1.3041837999150132
1.9969350174733724,-0.30161420512387493,-0.11768258316012621,-2.394866687557069,-1.1909379737305907,-1.1547004651727606,2.208181451860379,0.24933168974228817
-0.6648279124442086,0.9595720669809721,0.7038111840740483,0.7322577310829067,-1.4133844953973416,-1.4485999654735353,-1.1736850173018052,-0.6147837218453348
0.5634199773480207,-1.9536864372335458,-0.557917411825902,-1.6844596156160665,0.9539708778292904,0.9255757160584315,-0.6933572418382862,0.6554797368179425
0.6414900816568267,-0.5272127747132375,0.39793890356115585,0.830296173578098,-0.110371766181993,-0.9231446943400211,0.5534361008197446,1.4120184453257363
-0.15124262353389797,0.24061056272770448,-0.6074962253380048,-0.7704490739696005,0.5124208774644541,-1.2584581974909494,-0.6347909182862816,0.8825250721830038
-0.32486125648027764,0.8642240363292607,1.2292463909515399,1.7803229085721213,-0.8779264370592642,0.265670621113553,-1.6062417085846317,1.1668214318472863
-0.05153671064097959,-1.0206411622925309,-1.1288251968866687,-1.381366172959978,-0.5102622504640891,0.692170493736787,0.9154489686535697,1.4247024869840696
1.1721439202589246,-0.5101008263450484,-0.7706022051358346,0.43433825169877,0.4322732649952741,1.4201284768171716,0.2165820316454028,-2.3181220909327336
-0.8232247839175113,0.4655962002579833,-0.4704137766422171,-2.46268439917239,-0.682574947438041,-2.364435671652796,0.5744760076196421,0.48221668152684277
-1.114578536471243,1.5239303440191807,-1.368781945265016,-1.0952313473607713,0.36381294780078316,0.8176061847538814,-1.440300758534403,0.19913575742711914
-1.474994309314607,0.3218652685616079,0.23568077110216196,0.4917797010988304,-0.06779615127403779,-1.1082896546040741,-1.2015005815210047,-0.2329005270324834
1.3636204604031261,0.2239881204443638,-1.0783986514071084,-1.912445367336167,0.8403619663019591,0.5864322451682991,2.605133401733194,1.048432663898278
0.9045107449630025,0.8904751921825593,-1.4617157544496846,-0.7271610308594624,1.5314118541171147,0.41828142379865607,0.023722655459869447,0.09630734081731655
2.1197354039315752,1.2251741392135114,1.3400218212444939,0.2524150565442181,1.8096842819297787,-0.36058164782145147,-1.5375367004328409,0.018529118593340457
0.24473474935792874,-2.7448338312422025,-0.2341845934309785,0.567611481024243,-1.191141643200139,0.2940839690937831,0.266199499767457,0.615713295035389
1.0408840507382013,-0.6353598348058305,-1.1426676445117923,-0.701140460717043,-1.0805545448981246,0.8898580439989067,0.099276389417009,1.6630589301901473
1.009459733528411,-0.9487886228181275,-0.2629075364324946,1.1477333665363176,-0.9572064082214699,-0.4798052705591358,2.040561237797596,-1.0551442947116725
-0.6161368914688857,-0.5386275674877716,-0.3504822656649996,-0.5906739666466114,0.11313854015868868,-1.2932680547336746,-0.008199681345264139,-0.3696505546051779
-2.330543542624149,-0.36634649392285334,1.1893734560953275,2.1782505622799273,0.2376029027083772,-0.05560780342617103,-0.9376098785408241,-0.06043746579442589
0.6793404030617964,0.42176764529761096,1.1480032994639395,0.18593453772787635,0.6685840305635106,-0.16930770674137008,-0.27129751302992466,-1.7958264229606975
-2.498510355907086,0.35526454962690435,-0.08609842570501934,-0.4502166630584749,-0.8798834492735138,-0.564651062635367,-0.7976350239041226,-0.2710897899983608
-0.3817445097094407,-0.0106381116922386,0.16358929387612914,0.6477800398716075,1.454934503101366,0.39432796762467903,2.223461589482728,0.6345901112298677
-0.15181655838420163,-0.9541714064134024,0.3543954153353852,-0.6557899012246814,0.025757868727420204,0.5156676962408173,0.36807764152375966,0.11464469505693503
-1.4613834994343196,-0.25072252502143966,-1.9058713429580258,-1.0276132090554153,-0.6753482752274902,0.9021238976010011,0.9184557163059831,2.50131823776719
0.26187049643902793,-0.47527517001569153,0.19130722338014206,-0.8110538253008122,0.3635971897048894,-0.20221251355850006,0.1689067298174071,0.973529730486731
0.47429304491735547,-0.6091263173144846,-1.0418901756785914,1.7344634604426103,-0.6849764317121836,0.9958520603992799,0.14141677130107982,-0.9356415965228927
0.41443711418549145,0.2058682469099848,-1.6149134967754724,-1.125094371509107,2.126565560902659,-0.4877345852737885,0.11116018305416125,0.07310498976484371
-0.8119838178168062,-0.7398454803759962,0.9767333625430055,1.470293635833756,-0.1296742243623203,-0.6661530813605709,-1.2675914189483641,1.8068769868744394
-0.3005650709786153,0.6170560888052468,0.5886972118079878,-0.15997876241111697,0.26536268981080896,0.1694941238885766,-0.6341162175529336,0.23025665254911087
-1.1697235739087926,1.0005851163922153,0.8884183069493574,0.7328467204825082,-1.230846523852927,0.4816669445812678,0.13314819413558943,-0.5172933588627925
0.3337898468924793,2.2712698770949427,2.462352409870736,-0.2870279582684652,-0.09609674660475398,-1.6508123344505596,0.3214046243449295,1.1627672816001728
0.659954012555685,-0.389967648066356,0.08511287910811975,1.3211005192755993,-1.2245047131881883,0.9494144760045716,1.6457920185623953,0.28946794201535814
-0.09695933740534418,-0.35243951830358566,0.2463652384381373,0.25622005140963305,0.6705131277297884,-0.19886897924458366,-0.7764649130909965,1.153140585410358
0.0614155803508793,-1.346635562295363,-0.05567146643547562,0.4658655566948486,0.5734799169609989,-0.9451614527494486,0.5176108225285373,1.2834700851450092
-0.5238187502576772,-1.3997554506961825,-1.5840604564369467,-0.4236781446009411,-0.32608725239780884,-1.9605245399793234,-1.3908263590337275,1.3522164959390193
-1.8389425062798332,-0.03663380550612377,1.8193176269027633,-0.5094741372051684,0.7402653574457967,-0.09077878075764934,-0.143886519567364,-0.8681544388110927
-0.399297543827255,-2.3995185102931784,-0.8915891417738472,1.0194005038154417,0.6537956975866316,-0.14323286177884725,-1.0144105316864422,0.6541539817199059
-0.6338740211414473,0.42714081058052267,-0.27957055576673295,0.04265077350346573,-1.3291207902021613,0.5414484757942729,0.36608324493029704,-0.7508277071400584
0.8909233189357215,0.36850722653259943,0.3305593172028475,-1.268037673925941,-1.1628583104371089,0.0666995280382398,1.5972502497815413,0.18357661531352631
0.03216365424328586,-0.12261974650215886,1.151972682460945,0.20174543834869135,-1.4421579290885076,0.8100430944762932,-0.29784491011668707,-0.44474683134610093
0.26316094319241917,-0.23680928189605482,-1.0504188628029132,0.635653044014643,0.03315429298358461,0.24149478225108745,1.274482615507064,-0.2296065895379818
0.6065681762525075,-0.39243368562499614,0.5260972837934644,0.5934810771652982,0.11091867663369047,2.1064520598273555,0.3170015942140361,-0.35015142888822115
1.121521325560082,-0.15599550495785902,-0.9304604737200999,-1.6224979381938536,-0.049199745837069875,0.02301696588405543,1.5603125867116272,-2.252292070976483
1.3413315978895937,-0.418141652773036,-0.6861462837586785,-0.7988116067293265,0.9913248380296874,-0.3632095632194144,-1.4617411267294713,2.0891450869369486
-2.0286557385935082,1.0329062240635178,-0.40452700872965164,-0.3200752516971996,-1.389120017117853,-0.234155271837836,-0.056862643220243154,-0.443844668787668
-1.742510913931796,-0.19802291485232745,-1.126066105448527,1.617347363776655,-0.8082704866767163,1.495109849511839,1.1269423156555003,-0.5901603399262303
-0.6267756485942504,-0.5962836381188202,1.4521665950632572,-1.1288160202439725,2.926832088158291,-2.3810678233388094,-0.5455262706224796,0.2858788618466841
-0.528034030067164,-2.43154935146049,-1.2565407363278664,-0.8683294244732079,-0.2687460450180546,-0.9785575706390212,-1.255601270279954,-3.1248845042781572
2.154134547112238,0.3905787547165845,0.4325375850269287,-0.14009398842206056,0.8414611648750563,-1.3309389905547329,1.3180548707561857,-0.8403433654584331
0.7474587236045463,-1.238305493182932,2.2049877952034667,1.0490789921149462,-0.8012519741413233,-0.9650786684761061,0.15981037529436953,0.06542057886276668
-0.43541955235360497,0.04742704379284688,1.4408033884925457,-1.015170815552446,-0.4257146578534006,0.27335027416793856,0.5170489971519479,0.5718869292402129
-0.4256502598518783,-1.5906688253230417,0.065271429583745,-1.4694233481699592,0.908389151622456,-0.2107606119306676,-1.0713868878266108,-0.5808528456562765
-0.30234685887823487,-1.3665907598899665,0.8272074157349433,0.03939764823600191,1.019379634848077,-1.3727452646061356,-0.10765948996931048,0.03048034086647906
0.7115501576231498,0.19728902040123994,-1.2892878513986048,-0.1507681735669248,1.8720487715056282,0.7001295997529254,0.5047570070821729,0.11402671141568013
1.377342312100727,-1.8409366622969587,0.10098098938597289,-1.746878357018072,0.7645343616130115,1.0581394375070616,-1.2357200972710067,0.7990646413426061
0.3051128795185331,-0.24959954450445587,-0.7384828378563414,0.32154232363910756,0.17959062170041348,-0.07707710105808624,-0.21825096817338663,0.4352476399508003
1.056637691119231,1.104365920762615,0.22199897435286695,2.364032678794328,-1.181659863240704,-0.2797123720983625,-0.016490385889527257,-2.211593744859954
0.16051319576044168,0.3292201206149731,-1.3043787022228892,-0.4847064725374389,-1.477385839483526,-0.28358211607184114,-0.4540190803978062,2.404314643807575
-0.265183533729188,-0.8510053537748211,0.15265153076469318,1.2937735759857876,0.05337981747376067,0.348587306431305,-0.22226778065999625,0.1211341176669763
0.9245872741002525,-1.5100198123696527,1.5669580632560443,0.45172043838416115,-0.8562912617162922,-0.37485919801962975,-0.10007148638687519,0.792545293591881
-0.657001582225315,-1.3052569200045,-1.4050603345563188,-1.4519141888893523,0.061733421630400076,0.05792054360649661,0.9449800676216545,1.2794565241258797
-0.20510307571766792,-0.9368024327243708,-0.18287846039995148,-1.3747691227628995,-0.2989903420461161,0.0911011322284785,-0.16695451694477143,0.06710378463592123
-0.5597519213055839,-0.8685696855252449,-0.4167910128250368,-0.01640026610331707,0.49900340887971745,0.1067146291225818,0.8081111029419727,-1.1677194145740544
1.461038509183613,0.6771824481120353,1.4120670530601132,1.572245758430289,0.34512006467059336,0.37360882023765607,-0.5989181921293988,-1.4499745763889342
-0.5971887274571114,0.29366599869420446,0.1269799105782209,1.8281966620641616,-0.14738317192823916,0.5249782134139533,-0.9538711213031987,-0.706525697435275
0.7360912038091832,-1.0468563855291135,0.5044655807039304,-0.29499328927228263,0.1450628187621954,0.06183593256624971,0.6352365085270892,-1.4373312912528662
1.2925534084170422,-0.8208432687476613,0.5536843403426375,-0.8732856600330285,0.40226405825901335,-0.9990926274280937,0.435756173665756,-0.05759995986392343
1.2941317500395655,-0.31707850724916714,0.24358129421519542,-0.7960849140285201,0.8587629853641353,-0.11251499378912803,-0.04953033526421081,-0.9800275684131292
-0.897607349451295,1.8007659150224136,-0.6660563410612572,0.3574585900063465,0.26573926249912666,-0.7989637643586149,-0.06056220940662496,-0.6457771990896297
-0.5098456582336663,-0.503470603685787,0.24073837611168047,-0.22877513636727265,0.568341098807965,-0.7956627962894856,-1.1655458436978452,1.9583576978448993
-1.6218107894676415,-0.42256843530109756,-0.40650308625968784,-0.3248523849720704,1.0857813287155669,0.2718847158946007,1.9820630377892416,-0.6194440985900255
0.3894715998870714,-0.7818177098239877,-1.752353272981313,-1.2193033658092423,0.6385150402583931,-1.2315608769907251,-1.435474666363993,0.8332227195508197
0.6169004999525911,0.5789450965101811,-0.20465123632449947,1.0353366672676112,-0.8622271614064527,1.5917135236896205,0.4064266901075318,1.6470977823700792
-0.18181061233976395,1.8873162897821834,1.643993758787003,0.19501524520691169,0.7478075037357186,-0.7791226150357677,-0.7603593201608486,0.7666624755406195
-0.6785927121090625,-0.9932709858977333,-0.209057602200877,-1.0232967004413622,-0.11377846170470163,-0.45127421550544505,0.12776180508241727,-2.262186958979522
-0.3995551197281473,-1.615737063268831,-0.23639289661167245,0.12711338082074167,-1.0329978150079329,-0.4158242768001535,-0.590095668327169,-1.1664063836682221
0.6343683575173162,-1.0557677054458567,-3.049506782769545,0.15748186207191822,-0.03217047748034069,-0.15902449113866773,2.2892867909175414,-0.7260109849527635
-0.8967089476882054,0.20608873739018976,-1.6689161283927536,-0.5721837180875355,0.3665877681946479,-0.7842286391198716,-0.6463266231844597,0.7753399529183432
1.1590203645964359,-1.7482707480874145,-0.02928803590041726,0.29251981502208335,-0.6316299387741899,-0.5736679574251309,-0.027120831220119435,-0.1756480757412862
-0.24733173927349597,0.8703104859447313,-0.6431884328244025,1.4569582774750538,0.7875132377925229,0.0797314945195273,-0.5197890797962269,0.9722328490966683
2.1970089967306703,-0.27262728380392615,0.07863320679081927,0.9666438306555052,0.014904341095902293,0.6734126970751634,-1.37567167524425,-1.1282906791887226
1.7483883962326308,-0.4050053080114084,-0.6986477336991411,0.45344337752402136,-1.7277038908273321,1.548405868745679,1.6326100536766333,0.21766710124175762
-2.599077375224284,0.7459136316859336,0.8239478187784447,0.061580998557539436,0.5761290102535888,0.0980868212968419,-1.6772216147902834,-0.8801720010963493
-0.5184547528621724,0.12312377832738278,1.5050849214929187,1.5046769954661967,-0.5562106809388031,0.887225000529002,-1.6694103769586355,1.351005092386983
0.238215751262679,1.5240781517638315,-1.8613833010026475,-1.7387833426143067,-0.08534716452127755,-0.5128654006590078,0.7337986062339993,0.1502068778937127
-1.1983562555431262,1.8584953938796627,-0.4483653792691452,-2.291049165618927,-0.9920144889841142,-0.8328005144085063,0.5470586287468855,1.4893186070631217
2.342580132774287,0.04538608997672515,0.06483958754477413,0.1975801228885747,-0.18370101478364717,0.6402237209282907,-2.955313401434129,1.143822303590882
1.7939792225559184,-0.9152367365292987,-0.22627649674432215,-0.35237507272004437,-0.30299845772412626,-0.8622760429824163,-3.0763141472018765,0.6091625846580846
0.14885937173873023,1.3143743967048869,-2.5083123936205864,-0.1783477923287433,0.7131709415943626,-0.6304167060380191,2.0923706245742677,1.1713836212049156
0.670094841408031,0.6128441689402674,0.490347385181139,-1.4048216650168537,0.9255084505442072,-0.09684643666933085,1.628315414368007,0.3346095555794548
1.5652477705178038,-0.6194516728856919,0.04420042784836551,-1.7905834840462227,-1.6616661741163536,-0.06927779759793952,0.8065678344024461,1.4288951887803871
-0.11954237239212233,0.05848677688682754,1.642972558486237,-0.9282770794312627,0.2548779646979313,-0.11640039859088736,1.8958143252316844,1.186701987762749
0.7078838783275344,0.8326614701797244,-1.587768081271367,0.9189285505128434,-1.005562772250381,0.060455680619899685,1.1452961104053925,0.2840406150842696
-0.10643785392005209,-1.4996359635483152,1.1961052003249149,1.1066992454489026,-1.055930016094145,-0.29510771184307166,1.7330422515034218,0.27759673571466614
-0.21426322921506277,0.17469281049065175,-0.3009767515757689,-1.0285221075806528,1.9191992674318625,1.0994557664503917,-1.533806071590732,1.107138439933593
-0.07802979888407277,0.7381709927542072,-0.9283449710255456,-0.43799320879315157,-0.7739799021045818,-0.6009581933171597,-0.6845038820568131,0.28940210956575885
-0.5376263914424708,1.3127999781075914,-0.1299256187067035,-0.45624069917988125,-0.08596529868605948,0.7983900068427918,0.7234082996936796,0.4635052822870404
-1.2400003962402577,1.101957984204899,0.30696271905758954,0.348821425413714,-0.1586671995470157,0.20224388162765228,0.25867085658625255,0.030555998822109482
-0.8194672093795006,-1.167423036347837,-0.2945436713030683,2.3086175513010603,1.3920843067636228,-0.21711141779995205,0.4067872395064647,0.6743452966400538
-1.0894582898326919,-0.8605055179788175,-1.2289953191529952,0.6693131614863439,-0.12375788653806193,0.7526179154564356,-1.509409037176904,0.5286096235043929
-1.5893750440365007,0.017891552048382973,0.2982754103653021,0.40139922540689965,-1.2194071821608443,1.805899385956104,0.18940544555444516,0.21338761736665757
-0.4355050140487861,-0.9720753953156838,1.6373077320794767,0.27276913019964605,1.5794203072474264,-1.7042536696879969,0.5190742499304033,0.3086636294605458
-0.28675060891083926,-0.3437565288599323,0.8402344606047183,-0.006711772941257418,-0.16086757577985256,1.0887537259555475,0.9297963338800127,0.7075525024388053
1.1768675657385728,-0.44130180962145327,-0.4933482400854809,-1.242185837619898,1.7838244816820568,1.9766847703652586,-1.217786460442228,2.027817221041706
0.9104492888253073,0.23945763683703805,-0.5731143354997413,-1.2432790968122636,-0.009132480952570922,0.9131906413493073,-0.5889130406130516,-0.9225586059213255
0.010901511395802485,-2.171605425855074,-0.2860629071979607,-0.8416874504097578,-0.311234739670579,0.6563589829158873,0.1363720454139537,0.39640663647607793
-0.4430606553593706,-0.37429587595462965,-1.9417221484247775,1.1846038124990825,-0.2317612984109874,0.6965603693625778,0.3414008284524571,0.22880628994572688
0.15618607530675807,-0.24984334822078683,0.41885896468109907,-1.4249980489575171,-0.5659153469904614,-0.035062120121121046,0.7730403078039055,-1.4098076758028188
0.3067094179557007,-1.159816921839358,-0.2900388674739819,0.1212263023996691,-0.5789287398886498,1.719534670161062,1.2931327140895932,-0.3209738880919708
-1.2654134591550403,-0.5188806218136917,-0.018012751767366546,2.489955373505913,-0.1865076654840843,-0.9807717196657824,0.4127773531429456,-1.055823630792857
-0.5707174686767474,-1.0451279804650246,-0.4082393048435606,0.8125290915971651,0.08459527418433792,0.8132762223606155,1.4351955214241456,-0.8634224564338522
-0.11642864228729913,0.9695437288851428,-0.4963031880950624,0.1590606282250362,1.034243545866651,-2.205093827532541,0.46539247670413425,-0.15983705142858826
-0.23158234641146544,1.5892894616797857,-0.8467864394174471,0.04342334482000876,1.6827465997672182,-0.7792486449705379,-1.4741823168900399,1.002127649095126
0.49483650378922217,0.45110391538457933,0.15136342790302118,-1.0942031734230562,-0.706159558636649,0.9140864668499117,1.708630002719761,-0.41797200441950944
-0.07000268551910581,-0.43147070263775106,-0.7574152573831471,-0.8358336633017078,-0.6861125999324518,-0.3599053529180543,-0.10210170024995863,0.5574693937008848
-0.8932310459729015,1.7472931083673287,1.033484847504336,0.8964704743547716,0.8573957213582543,2.366464906109365,0.048840472155266594,-0.09651196545128701
-2.0704098770482693,0.3752208263072624,-1.1621579867724237,-0.6453204412227819,1.5608314542836883,-0.1962097375259787,-1.366793805453628,1.0368636479290536
1.527400703349095,-1.0303673006613745,-0.543211368012739,1.6243923981018995,-0.5451176969592767,1.002770813223286,0.9209684018741764,0.3283701568333166
-0.18228295792496624,0.9972675785322971,0.13099077402786544,1.186059733801843,-0.8708313684611189,2.370044770848234,1.2474763604308023,-0.5795103313279772
0.049505742218192914,1.7274248448007488,-1.4971373930624758,0.8082123275068673,0.8651607689662654,0.695664713344982,0.5156507896569136,-1.2311863982367726
0.6026753548309985,1.1163961374283171,1.4979216865655698,-1.9964078137914645,-0.945616417160198,0.8087456211166383,-0.4326084981909001,-0.40610165347229954
0.4299745400071727,1.6906075039576913,2.1303319533244833,0.2385765571883055,1.1185291410868574,1.629506209913121,-0.7134976033996486,-0.5735745394362405
-0.6660430750546985,0.07554771597430213,0.9849594375716534,-0.2191801644777763,-1.643279886299144,1.4912967650252524,1.6542747725482083,1.3263838236704084
0.29487753853369814,-0.231229573999104,0.35632050286712297,-1.632287515334428,-1.1979576318113332,0.5302305552083553,-0.17187787941464938,1.0364983613064642
-1.0061006413446174,-0.7762727879032211,-0.9346276894029125,-0.9048513207765875,0.943953343844378,-1.67968148634653,0.6673604146411928,-0.5562942060675881
2.2805697763539996,1.2700407753961396,0.2112592908096002,-0.17440513163710566,-0.142320320375112,1.4237436989300438,1.250092736637195,-1.210756744980125
-0.8361267577475134,-1.40284954099361,-0.20701161711232854,-1.2440003652816234,1.330983923224054,-1.9817933769544427,1.3070196002533894,0.4656422659942056
0.2706083176632869,-1.5662144439313122,-1.1894674937765102,1.0761349140289018,0.5333566091314192,0.1677056009276887,1.778174639450187,0.6901387604705018
-1.4723659447374822,1.1632931049912338,-1.1635085085414636,1.1145596772516109,1.218268072555835,0.2977746420454656,-1.7751644077381927,-0.9658215256401128
0.23207106614885525,0.6277763049528825,0.6537085527534848,-1.689260082996272,0.6732576433751856,0.028212756310377864,-0.8751664607422796,-0.1393614037322804
1.0686951041784454,-1.1924325548678305,1.6208040403634703,0.38101062626855636,-1.768092811701207,-0.2456003884483599,0.517037494555886,2.091815691418627
0.3941878398068222,-0.46336625069057147,-0.4849690393067802,-0.6074480267536456,0.15542811924789046,-0.4735827475879772,0.580465517464147,0.22772577395410495
2.641733830033919,-0.10517800262610193,-0.33624947523853227,-0.11154189484713216,1.1626182250822301,-2.37444965190251,0.059530688045182856,-0.05035970688358422
1.0616239494897697,0.36820617003140926,0.4218294788645984,-0.0027750791780061356,0.05146595467244788,-2.4336418120387884,0.5001839422003463,-0.3407630796004346
-0.9449644621185498,0.29560889542920255,0.5213799012013193,-0.6209657483361989,-0.8896744290573634,1.4465893724506629,0.16421936353522612,-1.4333062022017542
-1.8187136398328734,0.8863669771075041,0.8606924286039013,-1.7538234538165998,0.09914357742045951,0.20193391219504442,1.0805306934085055,-0.3312801720923918
-0.9046630639702377,-0.36828498682788313,-0.04814630460911779,-0.06870219003265926,1.8973020883100724,0.9677539376053056,-0.7061203726556766,0.9255931965515738
-0.6665153741229929,2.394871908562425,0.3562651473288588,1.4627664622748842,-0.10034842259030702,-0.35645739418116396,-1.2348371175104864,-1.1903001390123709
-0.935607270935446,-0.9116301588907718,-0.22262786164368106,-0.9983575925130842,-1.2354280945522298,1.0991349762191949,0.20327967656251725,1.0088714439486668
0.40896479411832587,-1.6109242585868018,-1.3874385983799111,1.4878058442778557,-1.858581888950909,-1.2706516327324244,0.5761584344534513,-1.7666691194015325
1.8708652959049752,-1.1433256837933174,0.9778737029067162,-0.37849060530653067,-1.4900115082217888,-1.6945325077487812,0.7531733913717604,-0.8322264465505546
0.8139160214313562,1.1734003662843735,0.3764531690455901,-0.7889041704196122,0.7390652609540804,0.035077541275407784,0.1115063030797813,1.2130454249599536
0.48702631861895196,-0.8573211828653382,-0.3512032963701664,-2.028995119643866,-0.8959167171309093,-0.00918614620044939,-0.8317730582553498,0.44692083778003083
0.8344705630758995,0.6799058184900516,-0.1641188576827805,-0.9578550060254901,-0.17090728895092222,0.20068928597013283,0.8803834985214417,-0.3240363569072735
-0.5738078042296124,0.8491465438620017,0.750447056638615,0.9422933115548617,0.5137236967979764,-1.1864441540919433,0.8513776529587667,-1.544448119260636
-0.2526370599103814,-1.1618646593749444,0.3920243573176653,-0.8440882347159014,1.788411501672813,-0.045121294697143786,-1.4382596092847941,-0.46661360499091425
-0.9651849119258986,1.1615590820102593,0.20527120204698732,0.57369574000158,0.26760637976734053,0.09538345959183754,-0.8248782761944691,0.8675013348450082
-0.40788784783467424,2.556540182939945,-0.48445006259576,-0.5702362899654022,-0.48822777984819815,0.8092094830263011,1.1453007773212105,-1.0138422178444741
0.7020267010646678,0.18694501210394995,1.0602458900019054,-0.12302200205076884,0.7142288829166367,-0.38152362006166773,-0.18526279597187958,-0.18611868305908782
-0.6878227080052864,-1.8202618885073145,-0.13896483414866787,-0.8464377369165043,1.0030709845356454,0.8953550415352427,-0.8006357276726905,1.1034416393309892
1.6149671071105152,-0.6422441021331837,-0.8227389368803708,-0.6010113840600135,0.1878100675900244,1.078557999594581,-2.2726203485786747,0.551867247523713
-0.8558488679613342,-2.381394723686817,1.5226692824879764,0.4200602908804194,-0.10891948208358188,1.2755071988454971,2.078390662928585,1.8488322552094714
0.24997531254171385,-0.33906662817831806,-0.9636296501456196,-0.7435472306864075,-0.9357287680949238,0.6990704392130138,-0.8922140591509256,-2.1770839621855536
-0.31997181678174047,-0.5201421209880778,-0.8031522454443526,0.053866068049163246,-0.07024031598685147,-2.0690903360603556,-1.3373336732694865,0.2644418204060623
0.4298458194435273,-2.140238977327657,0.09925761863568214,-0.8753814216191574,-0.5749889748469696,0.41435283413401836,0.4294550738106018,0.44943328944000704
0.36562045972680474,1.3970468557728162,1.651184682823981,-0.506610836254031,0.9931342635388049,-1.9369627159399476,0.17260179560137917,0.969715151988307
0.02260871629303982,-0.7274301846697697,1.363833987489703,0.8521591532291358,1.1599104132623361,-0.22683214868894352,-0.12747327441467196,0.7586583532760813
0.8645262329262896,0.16354047746926045,0.7453739705328889,-1.5659691412918277,1.0239089203846352,0.16004020205823294,1.4849072016125506,0.8632337124775628
1.5043223708960736,1.1806716643175998,-1.4707143679034544,0.6833460853368396,0.3759880339428066,0.04692064302502097,0.10546070876540511,0.6740928393714216
0.5053608698951244,0.7113331609621301,0.5734416209770213,-1.8481072152471978,1.1107562135713291,-1.3028812906896485,1.294972451607077,-1.0447598561469307
-0.8095552076484885,0.7905303491989988,-0.133836642350561,0.36637575362983377,0.7552126163462982,0.39603128758459427,-0.3086098691452106,-1.0087763480106615
0.9994286082533637,1.1974289125621835,-0.840252120601797,0.13993062297264788,1.8785038616808607,-0.23616044945312414,-2.427228658121372,-0.4970696143242343
-1.6638568717364812,-1.350418564846265,-0.0957637093342822,0.0015763161357727972,0.6149734380916155,1.1912720234788177,0.6106532130155621,1.2200677559104276
2.706712994919336,-0.8436831098306756,-0.6725157594226302,-0.40691572357202144,-0.8017386210180785,0.7438420568732924,0.6073877638768139,-2.0659102901913107
-0.4637568174487957,-0.7232245270902362,-0.04894620502191233,1.0318221200197417,1.9104882222664483,0.09241296301035987,-0.13216053682947354,-1.497552465631742
-1.8476373175504317,0.165587385760318,-0.22288832420804425,-0.6778513735205035,0.2743838266616357,-0.749849035602846,-0.4991471804544065,-0.08942994741345155
-0.4063862081191091,1.0976007379205976,0.8252181445978567,-0.20543471877605246,0.3855407846444729,1.1661432525486033,-1.856528822115961,-0.10407957839886055
-0.31072676980033764,0.4415899093377467,-1.0511102874628502,1.2732846715716486,-0.9487441659940378,-0.08234625961381102,0.5400546897380941,-2.506586608015101
1.484925034036163,0.053487851196300326,-0.3546549276565336,-0.1847711496838949,-1.6389658396321276,1.1822499769915178,-0.40762611305040575,0.5371706368559409
1.5897211494111274,0.8350572115706892,0.9779193408550558,1.7222723709995817,1.250556074363297,-0.4637059632678663,0.29002527229282743,-0.5570947225301538
0.551125194004855,0.8235139580066425,-1.8822800968923872,-0.33492889998202474,-0.8032393866122167,-0.8083738972688854,-0.1620749493126711,-0.48269980017824776
-0.47565114953479154,-0.9402680673588338,0.43378415784411223,-0.5918506142771722,-0.7937869204506434,1.5703760121569241,0.6739263208299395,0.14289282108317833
0.6602005372102608,0.10314909912231371,0.030421272173134496,-0.7795778079338379,-1.0429861443850648,2.627447961969065,0.5211127010148577,-1.0053380332467887
0.45457439125320415,-0.9081711366045883,-0.5507496493989436,0.15727099856391596,0.28733930865209134,-0.12396309349861502,-0.8659649862712778,-0.8247992687611025
1.2842910543567498,1.284268887623918,-0.327593174195098,-0.2948199493021327,0.2551596404380229,-0.11775255267033083,-0.6397187405949373,0.14279760127662436
-0.2175054328953706,-0.7477979223021588,0.3367750902741578,-1.1472969234918275,0.5956495222939885,0.9019543564210395,2.294719441557278,2.1354958031836446
-0.4237883484835725,0.41176772451112215,-0.12248186151921127,1.5994850443657043,1.14757133265876,-0.04201399957676224,-0.46173710437051374,0.5518945917237984
1.292872001020629,0.39426024150478983,0.350616626498935,-0.5963351837985784,-0.8088060492747631,0.5345634457560359,-1.8261548193427313,1.833821661946869
-1.1065228147340993,1.1883159384127462,1.831093841171499,0.48881256060127193,-1.2596298623377358,-0.5131670303987301,0.9135264471320375,-0.695201103219258
-0.9243353214288609,0.11753560110835289,-0.6954846633148458,1.4719429374214203,-0.6725213426767139,-1.5086851910733314,0.6330840329449637,1.0337870366327617
-1.0504220301134377,0.3948588097125597,-1.5891090559413341,1.0912538553945728,-0.36496187926377355,0.17779474525818326,0.10855818097324095,-0.5193716929219641
0.13044393550752792,-0.14088917932589334,-0.8279313007003679,1.8770423265499914,2.178636583073304,-0.43880273479272947,-1.7242810366363037,-0.5592824136855847
-0.49896789936800684,-1.2948057079348265,0.5855760221095341,-0.3272115353275258,-0.8224928871429366,-0.10664631573594188,-2.3803152604424165,0.989336796439554
0.2706363394572042,0.917865676505936,-0.23659685140788203,-0.2843151199694536,0.22933589836510665,0.5359148347411622,-0.5748975633536569,-0.3292994551628117
-0.20651557840706075,-0.13904775294560975,-2.02451925350704,-0.7359205601026544,0.8966253482854595,-0.23165726107795598,-0.37601283695536697,0.35302242614832924
-0.7289853668641038,-0.39996722255060696,-0.5496961930588501,-1.8175912168351906,1.7240741483623794,0.06892762750149052,0.6071089435236122,-0.3075623960638552
0.3305750550654451,1.2788773166839886,1.279461306380197,-0.9153696674103744,-1.2282274574045824,-1.6921062068722403,1.0163578435243723,0.15483658875802433
0.4951584358616223,-0.4586058817455018,-0.2908579781029924,-0.8060571394505816,-0.09714966851433685,0.9607696182718023,-0.09659263087895824,-0.582149658522753
0.48221973210765984,0.4580863334455458,-0.635422683608991,-0.4489687839581214,0.8722452013001527,0.6080775905667317,-0.13228372124897106,0.6328812454438055
-0.8123833055561147,-1.4620336687748539,-0.5208368796964182,0.431363388746178,1.132139161981581,-0.4559614799701709,-1.6706776017083065,0.3929564820263779
1.0970435221315318,-1.7318867316947666,-0.31153610840504437,-1.5609711030021132,-0.5520057711470513,-0.6212774903368407,1.43724210447355,-1.1430433613391804
0.8744102907167998,0.012672444533346473,1.598687526739151,0.6828913747485365,1.139533799957562,-0.3070727944734901,-0.082974141695079,0.7024320790896731
0.01794736124227506,-0.4314861045422244,-0.9385440274393926,-0.17142317321707715,-0.5453998113352546,-0.31599761511098046,-0.2337709579268767,0.15182988016314003
-0.4685571543641589,1.1134040351438381,-1.9548955245092094,-0.062264281415820376,-0.7781864786304201,0.991618020633338,-0.6276681532835323,1.812455462382912
-0.8157322063904694,-0.0007729421257091237,0.41746280437360406,0.35132525395775854,-0.1748209797463771,0.07593228186386956,0.987068195174448,-1.0692826521094803
-0.8283574519181265,-1.0471642594160722,-0.9632397505193827,-1.2896496341562647,-0.03588149540340571,1.1187225139375787,0.9265654042078556,-1.0808489257638383
1.582907488399656,-0.10305095162514802,0.4022080104663207,-0.8046358868962467,-0.6015912362459581,-1.1151762994853578,-0.8722602307451822,-0.37328632926021055
-0.6355703357628875,1.033772051671343,-1.6910668315992046,0.07691837564479113,1.4643636299196918,-1.0577331986091207,-1.143742111524501,-1.4509551792091617
-1.3952901596943768,-0.26013175810593925,-0.49316682728879596,0.26161322894992367,-1.127219907190962,-2.896745214801435,0.6265591419719395,1.4895926003143296
-0.3573635743015205,1.2339560810049353,-0.09735624327310198,-0.10423756905879965,1.4189637439480887,0.5586276787429263,-0.805713915437439,1.2164537801087598
-0.2562107414424259,1.1023775010758186,-1.9997864515178745,-1.432232249112838,0.9018037438533906,-0.8711197412574044,1.2386140073560157,1.7615113864481717
-0.43590903705867984,0.35518421157747854,-1.5306856065734338,-1.669078295314187,-0.8705343993650947,1.0725536007779988,-0.4308492287760063,0.533599992854376
0.2807380393320872,-0.8716822361334083,-0.10698877681353847,-0.9865164696530101,0.9463444712323468,0.39725353111622935,0.9465451531829502,0.18639755437397929
0.14198247889429003,-1.2484960570690717,-0.8106957780032997,0.92415884019268,0.5465261790869979,-0.2739141023559093,1.1786765340289949,1.0915568281386252
0.5102891784381552,0.6858336721130163,-0.2788143418926861,0.3022265823632183,-0.5186997330005892,1.4931744046692796,0.5382318117885214,1.0444115487414969
-1.263521856641109,-0.8378224548073762,-0.23374218247739706,0.7427387260129884,2.5496614832382005,1.8136584479346805,1.3177719853068677,-0.8495546206227765
1.0963445841603996,0.6727536064610535,-1.4798958982352952,1.8274699871057167,0.31343765808100404,0.31442626436902005,1.549161826757264,-2.339270814740154
-1.90155802612517,-0.05412231420712109,1.6887763602844728,1.038789446869569,-1.3709992083109475,-1.4825391041635099,-0.10970329382904846,-0.14360403364490343
1.9503014083309844,-0.5572198910111911,1.1167270294728235,-0.867931715784685,-0.9272962415605698,-0.9528043367461707,-0.39266153268113413,-0.46851949453814196
-1.2995059124039674,-0.08559564719204159,1.2677078133259803,1.0088540974724982,-0.054317905640939926,2.2783928192226774,2.1266399250338712,0.07562689280072289
-0.14142674588405965,1.1989726857320344,1.4551560703425117,-0.6132311526108019,-0.5096953477914979,-0.7017869292101002,0.35283297494524235,0.2697243721488179
-0.679825598067441,-0.33631756188280926,-0.5763486137494982,-0.2684334729217299,0.34125027387887014,0.5929465590642793,-0.2669739841871937,0.2871354327103844
0.9040144750028165,-1.0818292920679036,1.3639040540673675,-1.5298474279255225,0.8238072327657121,-1.0070319945101938,-0.16369399761828637,2.172943206090815
-0.9111332679762881,0.5303260188612968,-0.4670312279513043,-0.5775716373763647,2.4318119016330852,-0.054684388009624114,1.5079317853473948,-0.42065255080026387
1.5660755823951247,1.7185507341357182,-1.1690900767479526,-0.4889333424449218,-0.26433269891379185,1.2394715309873165,0.11560820106954464,-1.577274253888702
1.0578115700884774,-0.2491661217060208,-0.2681434476821503,0.3008131786105052,0.08567369066000902,0.8689653906737675,-1.6083913056427521,0.2265356596074999
1.5530267227107966,0.1204437099028888,-2.4729218551167804,-1.6065531532592525,-0.8154465596739651,-0.23227103189436704,-0.603813228095155,-1.143332059004239
-0.7165272075177598,0.6305146396713217,1.421380426671345,-1.7011789778591038,-0.4010972395470596,-0.9646840289916153,-1.073971502548299,-0.7114191267333411
0.8557160059051032,0.0677816957166673,-0.6720227788337877,0.8519081380663948,1.5424171727538887,-0.1734967848237393,0.6499658902404343,-0.2714539796618139
-0.2948535498923836,-0.8417096046691356,1.3291003384912545,1.4137963989646398,-0.837721150098037,0.3242330675658092,-0.4002669025721697,-1.18073831133166
1.9172220448223856,0.1397388481491262,0.5179902713843291,0.6232925565157507,-0.19759983463662525,1.2637506965586638,-0.36610173854601624,-0.3644385585302195
1.1541257929585023,-0.19994193690555215,-0.5711206953244634,0.2793562564836759,-1.1280392213257062,0.0366785519553201,-0.9053798016947749,-0.793480474265005
-0.990885570167033,-1.9989623245217294,-0.5388506555054116,-0.6627153847340497,-1.1061910479159625,0.659623299501685,0.5327163740362348,-0.501763070788071
0.7334235729846401,-0.2144751794896297,-0.1254021337215446,-1.1995776356028869,0.23405830477101722,0.009958821745997519,-0.07480932928796867,1.4290221210105678
1.8375705178179593,0.0968055544252801,0.2196102420728161,-0.5381196332781798,-1.0421864378366028,-1.8489676686653937,1.2638712811219057,-1.106619759119417
0.08431989478535018,-0.6543900312594828,-1.5188865935989737,0.08145495424437338,1.06203885241421,-0.49481545311251524,0.9908831170431138,-1.9840204666215722
-1.9406133193579176,-0.5207672308523982,-0.10956405594575214,-0.13857651780180655,-0.020019124389363582,0.14380442282412317,1.2964670088939194,-0.40990044388949143
-1.1081791573929922,0.9246607654099483,0.41363034408345567,-1.3341125560264557,0.840000420019848,0.957430917707324,-1.4694950282129655,-0.001555218748422969
0.4730345515528547,-2.090982300998333,0.7780404242390652,-0.44286136268467285,1.287113974096309,-0.8334535971261312,0.6137721704740785,-1.0234924841657467
-0.8342827755667838,1.803102808635864,-1.166830234707684,0.20470012749406857,0.6197967666748642,-1.2554131971565399,-0.8647419160746826,2.0472351679845664
1.389530278716648,0.9988066198058999,0.6272125483948623,1.0663098478185256,0.11954681672363265,0.8827018323913367,-0.06536593520899364,0.36050745967573666
-1.6621345618044496,1.023627948821998,1.0556052249718075,1.6713116106684212,0.09433297062683284,0.4238084553151594,-0.5006200526467738,-0.522513266573688
0.8698230475612478,0.5807160899378176,1.7279107676391925,0.12311798807143412,0.5086211788795866,0.02852614620754046,0.5654321862010455,-0.2636521743456858
0.37469012290401355,3.107687252240094,-0.3245708442250501,0.9244237465925033,-0.6589045344811618,0.44011268093826045,0.8965087401127281,1.1476374365541246
-0.6096584453115763,-0.3103163181544181,0.33691820179751003,0.4114634385598936,1.8549290161727399,-0.12798574487486167,-0.37246565564090806,-0.424973545911117
-0.6907632331327203,1.039062528094705,0.944646653015613,1.3600622171466206,0.7017499426361493,1.0383613094432895,0.21332618909379644,0.24072619229788536
-0.932957041806647,0.19272791679472823,0.8329446227921358,1.094396041442585,0.4671568542914982,0.09025995699540663,-0.3658546589295966,0.16415726972835473
0.41649341308660925,-0.14120023330103082,0.4512061339062396,1.0734121577798756,-1.0978893700511043,0.7521333980209874,-0.34122890535646083,1.2795493898585284
-2.4307375525744925,-0.4904627183923735,1.4690968421437445,-1.4748779190154127,-1.1013053675464453,-0.5212349581708354,-1.414697557366529,-1.086626743456265
0.05711769893930588,-0.10571915758279928,-0.07282350905260046,-0.6877863308474748,-0.001322039699379497,0.6887943428668314,1.250447279709073,-1.354860685461841
0.429668504574728,-0.935963595772649,-0.25053533100871134,-0.8235688636149291,-0.1781031432191042,2.2491773934733286,-0.8826528601081023,1.3750695093199328
0.5415770075492706,0.757009466356107,-0.20753297777388785,-0.29434927950038664,1.3154443771683566,-0.8199719055755922,-1.7928260126938191,1.3407719971885717
1.7790567954018117,-1.6706958854001444,0.8508441767902638,1.0414807777766835,-0.02688063425986274,-0.5506919337941324,-0.2210221578090113,0.4259478766240793
-0.3380316001313845,-0.6697541137231221,0.9701056880199329,0.3518681207402096,1.4769235155524032,-0.41776689608848316,-0.4758460700388848,1.736755115546963
-0.8519986994744225,0.2755328151871104,-1.4539342361729939,0.891225260968044,-1.0472144104412604,0.28914053528810885,0.5681917599757473,-1.2656923430483642
1.7232401180436177,0.4041343810741676,-1.079278084303226,-3.221571094984283,0.90387787015032,-0.49859562055992335,-1.2520501466800997,-0.3807771507501744
2.5273441746022707,1.0249995104891614,1.1730954195200902,0.6604517105279301,0.3418251843985652,0.3955356944867846,-0.6786767519097854,1.6779599836065402
-1.7021112140625236,0.5266188991474817,-0.3773899049487693,-2.102795715581037,0.8504846529073599,0.5191407744011907,0.559377047423544,1.0388332017987212
0.8497338036283049,1.2863658406769283,-1.0897686546534686,-1.2025696249020812,-0.321156758094182,0.15843358470769014,2.071180180727135,0.13696746069025753
0.9546094612645245,1.3488124585893175,-0.1785938529098783,-1.004340612747785,0.07951571052288516,0.7431046642476298,1.4846204159958485,1.250425634635948
-0.4535398449187008,1.1986230195761203,-0.5843098402622653,0.620466635279084,0.05836520027311308,0.14831005103346145,0.10709762001126574,-0.014373847384034508
-0.8151423903953369,1.525602872528068,0.8283711139414764,-0.7227400542040626,-0.6044613751532157,0.43686555548327977,-0.3978698558597797,0.4221559324257196
-0.5772476904303093,-0.8954739068668351,0.8580028867586909,-0.2574325295204609,0.8254073861332832,0.03833830289760944,-0.6939281985116286,0.43708160595571516
0.05043520202981429,0.05355880624753154,-1.5400918939255188,0.9994703434021904,0.48469470802180187,0.8686760106538481,0.73457037223714,-0.07839102156491702
-1.5526316234937476,-0.9187799662315593,-0.7045244182581837,1.965497806439099,-1.3088078304911979,0.28480073358348557,0.8805502052919713,0.6012618827174195
0.7558933245531623,2.0482649050379687,-0.09142822848527495,-0.445939808358616,0.6386417736009701,-0.1273632964156103,0.7432906604691042,0.0631170323199646
-0.9750171142813139,-0.172534630123207,0.04402583085316308,-1.2174378305611975,0.1956388301407315,0.8234650651644417,-1.1246087716015198,0.7530359935785201
1.1463347858185673,-0.626470754020237,-1.814259431706266,-0.46093229148214365,0.6268611914087613,0.023288805078768647,0.020290713278339808,0.2683904943554346
-1.3713797664340435,2.2160888377415375,-0.7230693002851304,0.7581321227596775,-1.460974673508848,-0.5375664485770438,-0.2943434918910792,1.0494046559548906
0.36389293402673767,-1.1339159538328045,2.3555872527659103,-0.5017891735341528,-0.5962331827429707,0.8633998410634207,0.5524308697515937,-0.24349453678135685
-0.4119065601419572,-0.67169249921702,2.0185085765276165,1.707005085601577,0.6673993567807257,-1.4753465090973887,-0.382961739727237,1.4409173243846636
-1.2386960902394681,-1.8198261240953737,-0.535073076407526,0.7316831583730825,0.5775960509964642,-0.3357640066670633,0.53661869324304,-0.2642201518618944
0.4881019134116833,0.6918239659083147,-0.32905596804633935,0.3495529923440408,1.4966295671227507,0.5171581514128437,1.3360193791963069,-1.1156111035990206
1.4251593376246734,-0.8248732901708881,-0.893469113766877,-1.27677190316309,0.40938698096021214,-1.2521312788895924,0.08473291183369841,0.33048059183648093
-1.095568381419745,-0.0723249885657727,2.170862764642315,1.1960303087684376,-1.5548903301108252,1.7554323304597292,-1.2168820113995524,0.1586326722890991
-1.0605585220983218,-0.7145387177151606,-1.1548090079405477,-0.22771815348076577,-0.591684353254484,-2.72704906105327,2.3270589294164026,0.5235310715170296
-0.5540783642294063,-0.07354935338275251,0.1361238292412977,-0.4143443165350742,-0.09144890167422927,-0.18300967481302838,-1.0203403292626247,0.7276534117558981
1.1587194501381946,-0.5708143658145193,0.032975638517621454,2.810403953380949,0.5165648689167822,0.9433998143832703,1.0475468266694523,0.3602970564414234
0.19620240673702785,-1.8764459057113287,-0.06467528399977662,-0.3757079730055203,0.30038810813020883,-0.5840847969385233,-1.1600696377756121,-0.31537015663072065
0.4612412981683902,0.33571238390182245,-0.033391944132778274,-0.9504876085151744,1.0796612703021424,0.5029542790089118,-0.23314587166136136,-0.25252346075085685
-1.7435388508223952,-0.34300695435320905,-1.0578781155375894,0.07529566730174267,-0.16391467092929962,-0.7991566732067024,-1.3704240756828219,-2.0691065417368026
-0.44278236916515473,-1.0606311673012716,-0.7759682372330183,-0.6616256584033453,1.5254281890465742,-1.3637988965995398,-0.09071244819320302,-0.15478431346066557
0.34566874685621457,1.5857716155106663,-0.8930038545259623,-0.5978294506998478,-0.5092722359605695,-0.42264295722369305,0.9469914669904596,-0.4150766258299681
0.558067448335103,0.364101093350398,0.5376782379889092,-0.5632975690830315,-0.8187151247539675,-0.13996178986876384,-0.24991200062599486,-1.1320813790870483
-1.377130914177028,-0.6672334559280804,0.908624923034965,0.40607173828057586,-0.2269689850882485,-1.325169218304852,-0.3432942998218943,-1.4891526502090942
-0.6412460536083843,-0.11701241009381007,-2.713117365400674,2.529834362827596,0.8595062342763603,-0.8795830954323915,0.8901458690271342,3.0472264150832005
0.16531748326468684,-1.131225180161108,0.45554163262185016,0.5919121123705531,-0.31400265362674684,1.2473828519502856,-0.1783724512495227,0.7972786868332757
-0.25718815880424617,-0.9968286006201839,-0.28531459000151427,1.2334540316089029,-0.11060144259091875,0.802598119842569,-0.5037109148703092,-1.1108696044563777
-0.8667922005812962,-0.23219905997927795,0.672155472705022,-0.2231155784563374,-2.042137181451824,0.7060872209902541,-0.6621708123305643,-1.2826813043955256
0.7606656569031758,0.2062302676387369,-0.008886241352762652,-0.20074373490799519,0.2063912143389089,1.712700633813526,-0.30556938562671343,0.19631278857955198
1.8915037539033477,-1.0678890545910158,-1.11801378368187,-1.1062995230128747,1.2036790857966497,2.9115242326255966,-0.42978448129375185,-1.6595947965504574
-0.8458305951455052,-0.6828090567248014,1.599731692200033,-0.7621147540402801,-0.7486596942129169,0.7385183598307683,-0.3244983237808154,-0.2376051531642354
-1.2131456057519803,-0.21160857739108152,0.2443469226313276,-1.848825120241426,-0.6903571940294436,-0.19752081190760223,-0.24289052176630627,-0.794993856368011
0.5138524855553936,0.5071847687849174,0.34934721006487557,-0.06168786058887502,0.0816381922266304,-2.1806459872602186,-0.1844343015700012,-0.1924176083697591
0.9887069697395858,-1.1890708855445642,-1.3773777718021563,-2.6624284238435516,-0.7658534934828561,0.6203622476800921,-0.264241370651318,-0.46956086640938305
-0.4794989034687258,1.349793487269798,-0.11146183295149609,1.1238912299905537,-0.48298719628464454,-1.171297062849589,1.5746563636616395,-1.3264256629418825
-0.6337669647126813,-1.950676194871032,0.9800794410783286,0.8015047699016696,-1.6624606384394376,0.9090803789003691,0.2779793135175962,0.0314871728772332
1.1955613966971406,-0.22166375163569,-0.7289604805451897,-0.6879897587976795,0.05990290285389746,0.15588135771034253,-0.9961709455442818,-0.08080586427064969
0.11094032592306355,0.28392820850928957,0.6269391537937086,-0.4481069421770395,-1.571111141073198,-0.33502354876131507,-0.06699563393928812,0.9849545817937985
0.27622418208527394,-0.8159027304651179,1.0247456698590798,-0.9011224825735713,-0.23803391111384017,0.2724578089902776,1.1983483289371304,0.6876958768303035
-0.30382665371727363,0.6208363600107345,2.803282252689297,-1.612576987793476,-0.340375903224234,0.9504650671663966,-0.3123951376008733,-0.04290374404708144
0.20300709975361594,2.1005318424964203,-0.9461637937454108,-1.160927709428448,0.6752038040096687,0.3917289116150432,0.644826524654678,1.030498504993491
1.2263823629263482,0.7102335431724557,-2.1489219240795854,0.7177230409975268,-0.6861368678775951,-0.2819098434378655,-1.4114755203732436,0.04746363238951502
-0.027555957758407038,0.27839028518123105,0.8576535804137356,-0.016113029955823553,0.1001652066777851,-0.024609900829555605,0.0774478577242065,0.45958262469610883
1.482987629138906,-1.7013901530374256,0.5656584178334193,-0.08557181526805024,-0.38884683179711443,-2.140373956524125,-1.1638122503193957,-0.41329503962808994
-0.40877997285713163,-0.6939908947218281,-0.8661483003593743,1.9248054230041571,0.06050166817462499,-0.08524960599580737,0.6655289922340112,-0.3730519674361931
1.2022785601622221,2.259929676595927,-0.6808018790042035,-0.41955225227643334,-1.362147033123357,-1.210852006480836,-0.5885850387527457,-0.2958499955295652
0.5195085857162969,-0.6654783526811865,-0.16575490375624846,0.6937580269457451,-0.5466992479791324,-0.12679158647019778,-1.6518590257950325,-0.3639536163034473
-1.8454528054763015,0.3349347052658807,0.783449606990586,1.035203022666083,0.4327363766338503,-0.7267374857262016,0.45948126434072134,-1.3888941791666163
-0.24065598134400715,1.317089802204183,0.36978752011561905,-0.8090535801757027,0.28878450353666046,0.3130387542331382,0.0807839334211333,-0.6095510001207887
0.9645206527302592,-2.3611361091965875,-0.23702334998166022,0.703191388895652,-0.038737813173341074,-1.2709071779243681,-0.678956255279865,-0.437664141434334
-1.194428055871512,-0.6227395817155338,0.059620273948599825,0.7728879345019402,0.7747782563318755,-0.993796862345208,-0.8074446604560113,0.2902473228595223
-1.3682673085490942,0.24356211656582466,1.2069312201056925,-1.1451714782446127,0.3517991464357555,-0.6923177582652001,-0.02628077478998405,0.9099288587470222
-0.35816932527296247,0.006226026793994464,1.8743066819744865,-2.6139892702390086,-1.3255091685597757,0.6598584304710384,0.11713806043711772,0.4855869841940064
0.12246518441571706,-0.6078913437251134,0.2571955841502974,1.2132103277337996,0.9094306785003665,-1.0292742100295778,-0.7277631233585897,-0.8783910268940316
0.8343461123815418,-0.1762692650422298,0.08472873807070203,0.3250198181762723,0.35076823371081334,-0.42518719634171404,-0.44440154940605575,0.43694391060328636
-2.3805021592523676,0.4748673925603106,-0.6457557383212914,-0.7900181803952144,-0.39566439434377343,-0.22139629205786518,-0.7904218091396232,-1.3485551441319592
0.32453128513851587,-1.4010117339654382,0.4204647427821388,-1.0588373831664553,0.4706232657255575,0.4794867224062596,1.4434067955621679,-1.8430283913621985
-0.4579022090280843,-0.7628370302206581,-0.6456353038845957,0.5675800334059028,0.9411118441713968,-0.24546451634830335,-0.794787969072664,-1.103901289808884
0.9973844643013831,0.391553406286906,-0.587650249392686,-1.3202855109588993,-1.1982805591878538,-0.16560102267932636,0.8397766464104294,0.722880273676382
-0.9484646903020659,-0.15882928042533973,-0.00819990612610756,0.6305931653338092,0.3147880090845375,-0.3823592099547238,1.6055617152283619,-0.04303174909525941
-0.8867819710867393,-2.2658931622440313,0.20590603102681931,3.5831303617017176,1.6411764461470235,-0.19354768233510283,-1.9719110866565028,1.5004145792933852
-0.5287073014141035,-0.3798373475177808,1.272818864165749,-0.46825634464059435,0.00826129922982006,0.0531427267337561,-0.4909655198576382,-0.9779227995115959
0.5888019393396164,1.1255007822722165,1.302317315931654,1.3917634202938025,-0.8915175051212733,-0.28445962817395576,-0.26240143271543503,-0.6133004294292483
-0.8849137948130266,-0.6890749632376505,-0.284056548669691,-0.32343131858338786,-0.8563359286201511,0.21553820697218395,-1.4616189321701816,-2.020173935680244
-0.4293467070650786,-0.4061464091954752,-1.058575254940073,-0.937309933479874,-0.8293788599968085,-1.254822693144712,-0.1659379968400409,-2.304073977879655
0.7868875303904526,0.42092577312078167,-0.9123071894588112,1.9227109764735266,1.1055255697506563,2.896364656397741,-1.4236494025970907,-0.07541100295197878
-0.8641510604609587,-0.014977885886669906,0.3747455807187026,-1.2708571196876668,1.2793378382248861,-0.12112758195835044,1.6688517830095262,-0.9895543246518094
0.8284063211435136,-0.25983098682353345,1.345587630729847,0.9103180861580269,1.62325559305791,0.4298770063001686,-0.6957064038367674,1.2978634096575925
0.2536213519895321,0.8270844500573853,0.6481543469954413,-0.6644043771199346,-0.19827905049514435,-0.4652613998833976,-1.577806076575901,2.175721187257259
2.1234228927132413,-0.4902484092398129,0.8175044413013415,0.9645970944061305,-2.3067470859459354,-0.07079650007066791,-1.9229687786911214,1.3398390346837636
0.4555846275897372,-0.08512504325862107,0.3945887151202642,1.310924710643305,0.18940981361734072,-0.48550709580847096,-0.06492939498016354,-1.0254530031515796
-0.5282331196157379,-0.9835799037454294,-1.105146764681864,0.6870719268382623,1.780448264847788,1.5864267269513996,-1.129939129718986,0.9966979090013227
0.21794184822786336,0.9296388815541841,-2.084501666814467,-1.4984230471962934,-0.13362943171592664,2.4124127124056005,0.5337881011424522,0.33270748126885924
0.3211531510188756,0.10658552129950642,-1.5847712450722404,-1.2429839528188646,-0.6428610619166691,1.5236061294737944,0.6686107615659458,1.2855338361747515
1.4421466058213337,-0.2444610610567531,-0.27943797986988933,1.0606649354254933,-1.2110200211417577,1.9349342233050648,0.10428094053677875,-1.4665204637538376
-0.6712789653570936,0.40565539620186,-0.048238084463498705,-0.3670068268494765,-0.4114484809567836,-0.3386355779567332,0.6478552416484714,-2.8125580809147777
-0.3857740122247641,3.0929489089767386,-2.121827627300965,0.3697156328758903,-0.3961827147117222,-0.6787899347511175,0.9984848609233815,-0.5299976931783538
-0.6749185452592253,0.03870772926560236,-0.12208037575081285,-1.4022788545566676,1.75581797325404,-1.411356745095519,0.6992127699504159,1.3386928585968312
-0.4184564450930086,1.565491512635434,-0.37686481515624065,0.2417839351318989,-1.0079645612024992,0.5774360584468368,0.19871601467758346,-1.97523172840792
0.09959382591762533,0.09163242159546556,2.081637559710289,-1.7969407379922535,-1.0805533050609188,0.8262648111233242,-0.6123766020239885,1.4487740724281288
0.5858741587325411,1.4784707520988687,-0.26766938335984153,0.4396648779266276,-1.1270697142337507,0.3114828980074145,-1.8231935238932777,0.7498682355354153
-0.579105419794235,1.4595526279281674,0.6973946096115182,-1.1356297828834494,-0.11478495733149126,-0.6960827965139292,0.34839416308469895,-0.3588823138902965
-2.09145575435638,-0.8912095653625718,-1.3833894159073907,-1.2789862257992994,-1.3024764056132248,-1.2416939546444556,-0.5235989885565167,0.830142792599332
-1.6727053428566316,-1.026217920092811,0.6972575008157902,1.2577846468444063,-0.4442542350228582,-0.5269607266628962,-0.6528556948636466,1.4837588184930266
1.9117128519652105,0.19017775808495163,0.4332027484411946,-0.7765414504804489,-0.45043205292781374,0.3269428731798468,-0.2871290501949792,-1.2053372974277128
-0.8904819456214954,0.12025760468126459,-0.08669126710464184,0.0908243935110373,-0.07803137123255419,-0.22019969870173242,-0.7113859468629833,0.08879422292875916
-0.9641522970702667,-2.5878265899433988,-0.5643028326667386,-0.23955005325134898,0.31145799514566086,-0.47932990938398007,-1.2084043057301728,2.581116713763005
0.14144172243435937,-1.4032674419341062,-1.1324683243624984,1.02678835519496,-0.5536974827601842,-1.6368132354174645,0.1614145893977421,-0.1270238950904403
0.7354853041987327,-0.6572691186957594,0.5037453993168325,-1.529832253910976,-0.5480966860576115,0.36012366022339576,-0.43079446967698687,-0.7108699113466815
0.24809722155144842,0.32224866815438064,-0.15494751470406742,0.4238411575035519,0.47556530601228586,-0.5946984293087204,1.0810946711580616,0.27462471185593
0.5768499540028911,1.4577495922634716,-0.6656882800122756,0.01757847845028036,0.3928113482875993,0.1650454535591115,-2.715463816050945,0.15841572901650414
0.7411295752550068,1.2790824728493573,-2.114525464851407,-1.2007198347470698,-0.6901326975987171,0.09351968504608879,-0.324190618725758,0.7599989540324676
0.6213133467010339,-0.8303791961154423,0.3933709035379479,0.2378782532415856,-1.8004022821656207,-1.167890232104977,0.17459776661142648,-0.2280270271391994
-0.2426872981860575,0.8846443688703288,0.15260771432455505,-0.32341883106395514,-0.7177602843564392,-1.3241314534142234,0.5553965220605249,-0.46679579765146473
0.5516130444591321,-0.6223403478223265,0.9348081669914913,-1.1969862469561467,-1.8004198967218137,-1.6343759149686488,-0.8741599500970013,-0.8961545000672003
-0.7710026578872999,-0.6476426416714117,-2.176518813074845,1.1839593050999921,0.41873282363577363,0.016066151805119288,0.10498507360215642,-0.2522954390603069
