-0.659871011986487,-1.0670225007129803,0.11232725854101025,-0.8903223058339519,-1.93316477660822,0.12297767118382481,0.3114225011497853,0.6239429480117131
-0.5574190753888044,-0.030945080835299572,-0.40344413194205475,-0.7960735243776822,0.7336368470245446,-0.5186618244266272,-0.16067755699773778,-0.7647447672939882
0.09638030842466955,0.676684147916847,-0.181954396090797,-2.24825681865447,1.036516339925129,-0.6936560161092528,-0.9633904768137825,-2.622563412298038
0.04590586176907439,-2.105091352250864,2.692999448969403,-0.2327248637417583,-1.293094823833431,-0.3320987443467653,2.2247102040377915,-0.4205407484679381
-0.6231751924189487,-1.1000687579029327,1.6457035686865658,-2.2855576537682,0.12649934020420753,0.7702038987137052,-0.055547209061119346,1.5866712572396109
-2.8310327217810816,-0.9413606591294983,-0.8328414593769035,-0.5993744660997323,-0.16511071250710666,-1.9258841948081726,1.108113949968468,0.24307410558767145
-0.46571103540067144,1.6985781465708076,-0.19084679418948644,-0.23637197188334472,0.03966604874679899,0.1940958992513792,0.6744029101566763,0.29459309110539944
-1.8254333243310867,1.914206624788737,0.14412188519022248,0.38951451339200166,1.2656655871971993,1.1938834784666117,2.4445655233708004,0.6316536324905863
1.3049259026175553,0.17177238993169613,-0.7697778373330685,-0.2935696730983259,-0.20233156845445768,-0.004232193205509717,0.7830289722144222,0.28272569890558946
-0.6999737952663181,0.7204012347990627,-1.2703134517575754,-0.17452174085077135,1.0595735281271559,-0.43802846045792737,-2.2462315612268156,-1.5218125425288094
0.9619170664981818,0.5215407765948352,-0.748323343360078,0.40029296428905015,0.6887304192049747,0.1364269919270777,-1.7868270169252518,-0.4806986861779924
-1.227712016714526,0.7006760105390425,1.7207661154530631,-0.6654897170838509,0.1689607072068642,-0.4976913801851593,0.63415283253896,-1.5799582559908332
0.7453563922670124,-0.3882254987514495,-0.7808749541539153,-0.17319390837984702,0.2511688208630657,0.667027084526132,0.5126003130259661,-0.02410494966363454
-0.8314390718385241,-2.3354921430391467,0.7340184183121153,-2.2204858915645747,-1.4483570705109357,-0.03556760349861797,-0.4623097696362878,0.6576837965878318
0.03838666351181451,0.07319067988392998,1.741882663121759,-0.43469325831622757,-3.0173252867107334,0.16111297797568788,0.3880242499122069,-2.6564748209437026
1.8162066008738236,0.9453844989468648,1.219402731146556,-0.5031435334469917,-1.321704604972305,-0.9955513640445549,-1.2736959676528974,-0.34336252939797673
-0.5175203927375341,0.20576131728798022,0.38659694047877224,-2.0657791459154655,-1.254750601681104,-1.5762900944497595,-0.7623940836104437,-0.8452658386723001
-0.2949033891941237,-0.3293612822724836,0.7588094906797771,-0.5775183253736885,1.043514528798701,-1.763036370215483,0.7223196088275196,1.1169309109945709
-0.7814001119340348,-1.3033370808717595,-0.8751047592293401,-0.45849057024173284,-0.13054543168599353,0.6829042858236317,0.6053219615021019,-0.33428166926474245
1.539570594928167,0.8378810899250445,2.49511415930928,-2.1477667517493906,-0.9549661187696468,1.2407118358174858,-0.2959022288783789,-1.581754341117755
-0.021767342381856344,-0.7647997531504538,0.03990064389381578,0.0859053900711433,0.6196020554006242,-0.258975103744244,0.2141439030716356,-0.6141447391915662
1.3708402356786074,0.4145936426033881,-0.28263709109165613,-1.755970235614063,-0.11028707311563553,-0.18983969875330442,0.7479723525812563,0.5482079967896415
-0.11685427709772243,-1.2593071177167157,0.7741391220402153,1.080663095528289,-0.8493276478974143,0.14488339524460195,1.6056968868774273,0.924263856010528
0.15487897963494465,0.7274028737954417,0.5141242869240864,1.5695648570684957,0.3603091556853805,1.0197315489044534,0.2021461260687934,-0.8658903926681569
-0.8298974715630916,0.0823933361670621,-0.038191146234620645,-0.3432181649422937,1.254099611070637,0.1933492578270589,-0.6168351936233903,0.3759479922370801
0.33229118051218337,0.9493820321074691,-1.1529581265181144,0.21606138669945543,0.8160915222041942,-1.1465075626965169,-0.5304284798697345,1.4622964184697198
1.5526282008308574,-0.20170723790554917,-0.42749117851442914,-2.2540555604465804,0.3182456814545376,1.7996951863852515,-0.15004076635119645,0.6779013590765542
1.1381473585262978,0.14797429851415872,-0.18222291029838655,-1.98715684754183,1.0547047510762166,0.6106613233942757,0.5197087241534059,-0.7118789049798218
-0.32639015532013405,1.2303997141706715,0.9223973481740754,1.4100423289463822,0.3051972940206139,-0.6907753977444268,0.7080525456427799,1.0317791034718173
-0.45240384408257567,-1.2699362983817823,0.791495791668424,-0.5309953667376899,-0.8997661956528521,-2.02391980675917,-1.9084356981071204,0.7545281361980299
0.41270911884317196,0.03719198908519502,0.1683726709452886,-1.3089816889058257,0.7889737862904362,0.7718639487657001,0.6414030037856595,0.9853018149691155
-0.31078969473094525,0.3378983290871582,-0.7262281591180436,-0.17820899915950614,1.16662044653944,-0.7175136923990311,-1.2723867929336314,1.9767066350902984
0.559760192379465,1.6713357474583146,-2.7149126102559538,-1.5950430845619363,-0.2160377247333063,0.09084698689355973,-0.1638322023538553,0.584602372816
0.2238904704732843,1.6095450126373487,-0.5268777362482224,-0.06737525785078162,-1.5126219912932188,0.8601198398672028,0.07112564548588551,0.31018827011152766
0.07789014516087016,-1.2641846407638582,-0.20799252792580444,1.1736037129459098,-0.45210296708081793,0.2582985985166092,0.6184810052874821,-0.10594171326342411
-0.032344306518393165,-0.5170765516083621,-1.2680338164726732,-0.14647057642099098,1.383813351406622,0.4748725496153753,1.3906235227790602,0.7101239140621692
0.30125065143520807,-1.0029255425430497,1.1539181361478366,0.24440076771217378,0.47424097456931064,-0.77211330839414,0.18219338227313456,0.5476940559690372
0.6168807788974766,0.9967440631813216,0.14066939334496045,-0.9269083589914463,-0.22696854689469714,2.052840055443527,0.28001230635336166,-0.39704972892145896
-0.311345472439465,-0.18912951960002988,0.6021923209760506,0.1751050569141979,-0.22637083544957637,1.0756699739414606,-0.6657719041919322,-0.24914646500804374
-0.5214357415147735,-0.7579053167084993,0.9761923900307654,-1.8620115300209858,0.22758353300420656,0.5572481741031364,-1.8200105392883075,0.4684448090340438
-1.2030967039799625,0.14892006455033363,-0.7417899112318557,1.8536098554930784,0.3990572429248105,1.2838839765321046,-0.13762228860837994,0.3703356639741422
-0.6612379818787754,0.9159006010774434,-1.6130038324149831,-0.9022418521614886,-0.38850154332562015,1.6529373852378169,0.5364890528613107,-1.7381588836050137
-0.9682840797668776,0.09253841376399148,0.4280574124445957,-0.960333072428062,-0.28650722123317107,-1.7758424552839867,-0.6542222294345117,0.25610052535870215
-0.8121029047372886,2.5439387363788524,1.5023189008288977,0.8040191812284428,1.279499140860892,-1.382125617199269,0.7712861823387243,1.4875433935998748
-0.5502681943303184,-0.6035369559964299,-1.390970493672686,-0.2570557592335025,0.23394713421751337,-0.7053866716079217,-0.918792489323901,0.06316336527898142
0.16268696624761883,0.21582806405357693,0.5141327780147044,0.3725883191237616,0.811135778421481,0.17867818945193611,-0.9208460845612764,0.44756228624017524
-0.3675883038259137,0.28232636656578614,1.6049281313453572,0.003167611156723603,-1.0523544313203412,0.6910347859223659,1.6492662980420685,2.328317008715932
0.34042383865752346,-1.6269156731893395,0.4031206047207118,0.4727806786947749,-0.5613865978877132,-0.10399083295584774,-0.577656360566982,0.0551904589584785
1.4582849374176357,0.26710020547414365,0.865555257648349,0.3109444726530252,1.8077023260015372,1.2992889415286404,1.5332360354553285,-0.9015982767076989
-0.5320516539367837,-0.5787624839031297,1.0435078150491408,-1.3976684300984148,0.9070393124014081,-0.5403341910073184,0.05395922998846903,-1.6254485203517992
1.4548719275529451,0.1934424932109048,-2.1747581871508688,0.8133474362840241,-1.1147865599279758,0.9607874679748235,0.5870285351841384,-0.11573803865093349
-0.5040198156204917,1.6499948254891568,0.7393403841853329,-0.966123938686782,0.9994231304018912,0.29913355986597695,-0.3645836092168636,0.36088978486562906
0.9763711253015996,-0.6556009207890414,-0.8802497127617321,-0.8419868828066016,0.6486011015348832,1.501488984648436,0.17304878040027288,0.20924236711178143
0.8593712944962817,-0.009495253420772825,-0.16646624537009116,-0.8381561831214813,-1.8417994488415808,-1.9894643820730473,-0.36941316776770833,-1.06129931224385
0.05334044448630248,0.8902847690527008,0.02439946366282915,-1.6193606013533095,0.04014486306887276,-2.169621741790713,0.8030101474991372,-1.2146720100111164
0.139170995626073,-0.5173290247954263,-0.5981583170952558,-0.7929283235063892,1.0223723922990855,-0.5202018146658772,-0.17572108716327706,0.8832559662445435
0.6028293317315887,-0.5387354368160163,0.12421299025947474,-0.2761891368172078,0.587408866008002,0.5621474427906955,0.14220842392592548,-1.022683720128574
0.5183026656385821,-1.0825296942209583,1.346986148879438,-0.8984094644861683,-0.09921531378033956,0.390031877888904,-0.26659345229305154,-0.14576481154011275
0.671923934213379,1.5459743926566507,-0.47964393826640356,-0.168705976277643,0.41609284361525034,-0.3844204209563901,0.2134129623321688,1.1207574042847823
0.10525274811018667,0.24856470106073267,-1.0571262303264086,1.2884811193508456,-0.48067724133619777,-0.4368821933453162,0.1481074654692581,0.7571168228384721
0.9469309642466667,-2.0410217322581694,-0.5984854302216693,0.33219210075021716,1.736303445012761,1.5762933451839993,1.3824470240293674,0.12039584931965029
-0.0058022567513110485,1.314996683147235,-0.5794629819909739,-0.1536242791949741,0.9626991879884054,-0.13668743710618506,0.07723858332006166,-0.9205391478741989
-0.4815111570820608,-0.08285304954773007,0.13416027648910497,0.55939824877059,-0.2652865901509727,0.7916335375752422,0.341914528389788,0.06140951565668397
0.48661366554232394,0.9046892731527796,-0.4528307906620095,-0.36289083122897203,-0.947847312404278,0.8396571041206867,-1.6836344293422123,-2.146904876635916
-0.5874796328871896,-0.5083276385548925,-0.6314586701102362,-0.738717504362369,0.08590681095792284,-0.2487329127756008,-0.11866443082047391,-0.284459622577372
0.73567607965025,-0.818484070097361,0.3459368561267058,-0.04663241429990316,-0.12074095686965758,1.5243296973769345,0.7115149530983879,-0.08515326887044355
0.8126042498264646,0.3070727728091468,-0.34617673229643053,0.7901892550737745,1.514093622471217,-0.12591831210093757,-1.7598922635025407,-1.840153856401258
-0.3739666228603562,0.3932983051788805,-0.34403520124908094,0.9649498747132541,-1.236358204307179,-0.5867517178366787,-0.4751089337431312,2.3230803900361243
-0.5364461029623471,0.37948175919427496,0.9628973529090068,0.040851749140106926,0.16683100351827596,-0.03415054527011554,0.2766915016626398,0.6002988353156008
-0.2536729039288234,1.6583179360099856,-0.5235060783705735,1.0459307175708803,0.9779385132606174,-0.6147206459999918,0.12400146300013644,1.0093033316894355
1.2097156414560613,-1.0061532375129536,-0.577761266455115,-0.5470619697186423,0.16221239231296125,0.14984620504942098,-1.5449095068198486,1.4409894508401504
-1.6069839678795745,1.4466034636675027,-1.2678598533561793,-0.9144763249116747,0.7606973324679271,0.5020130969014648,0.7376723748591681,-0.8407000400918728
0.6635394083147749,-0.7293512397903533,-0.5173631688168232,-0.8955417463491132,1.41745579116991,0.25093600802853927,0.014045668439561414,-0.777074672502279
0.3624252525911372,-1.2727900411425135,-1.4333108029473458,-0.5924220747787436,-1.7343036335714708,-0.45296540089291637,0.08121563942861662,0.33488988662189134
-1.4092565445356608,0.08781199129995731,1.090351799186238,-0.5033533963893306,1.2938166989412239,0.5095660937562347,-2.344361594252791,-1.0603204806491324
1.1126001736708662,1.0267828706062379,0.3135518840806191,-0.077780813653168,-0.8197573167326154,1.206622399029805,1.1514701826720788,-1.3567182303981618
1.5844483500838533,0.8524296500903991,-0.8810463011541795,0.39702685396447923,-0.476723958687388,0.7086291710116316,0.25176611158428586,-0.1355269786011098
-3.0262121067952865,-1.9346060474403617,-0.7334075310439954,-0.5316173738930722,-1.2538126800074394,1.4533535386513088,0.8190330485744884,-0.3600825513460506
0.35955911481515135,0.17058342746388072,-0.16547621424579692,0.5477658008898434,1.0943057035283092,0.07316588727482036,-0.7869350272231052,-1.5770118977461192
0.8411576160313158,-0.5114818458155113,0.3333237750514304,0.5366351497669257,0.8549045682290393,-1.9864645401545185,0.4138427508642069,-0.9497414028799348
-0.26023276217857755,-0.10845694579800876,0.7841513213992211,-3.1228379774645076,1.4195161288732014,0.893423943467372,0.5373492214131751,-0.3665482844626726
-0.6238579034285588,-0.4823429243437986,1.825676820309647,0.30049966852110527,-0.9260971917954609,-0.737738428011713,1.4493572635029697,-0.8611458477401222
-0.04632938262831166,-1.0638207531231485,-0.5460430190828193,0.326180930413679,-1.1541312660143304,-0.2871576648761243,-0.32213053195066665,-0.03544960479186078
-0.5298246984420985,1.3481195044390997,1.109845601120472,-0.41442233332423384,-0.8525734450410144,0.6882031590822373,-1.6443759417797885,1.3145091658691463
1.1424127553124122,-0.678818410704229,1.5143753521604917,0.28389643366492534,-2.323222237292307,-0.18271325492738033,-1.6884557197789083,-0.7182270532936283
-0.938085848291228,-0.05563250419556518,-0.9871341757640639,0.42045871776057114,0.545121964339183,-0.32418214048715427,1.1755209472966879,0.1691435135481169
1.8220997081688148,-1.5220176209469674,0.6084394024951585,-0.6031933678957654,-1.0916783195495354,1.6988633497719163,0.13094800055809513,0.7465373854761248
-0.119985832606781,-0.9039099131384065,-1.5298917640813385,0.3375380537116916,0.3565942437615377,0.271784360038507,1.07889856641398,1.5845116902477832
-0.9768936444627456,-1.3756400557803314,-0.9913279228691834,0.3764329478358876,-0.24217237460970523,0.3147310543741258,1.1022897240473448,-1.0657296093011341
0.3259734520324524,0.9254076744177987,0.34015580021180764,0.5003098265907591,0.4349126535941344,0.010998115612534446,1.4680873710751223,-0.31861248603827796
-0.07054131309110895,-1.1364322707301993,-0.1927393857654889,-0.1854697983599429,2.643166781169939,2.1243313752971726,1.5537058181971346,-0.5236035597556965
2.52048452759492,-0.5459657665730997,-1.6650440298691103,-0.31217616335311726,-1.4531733056160263,-1.035681445009727,-0.023393014765485828,0.78378078514805
-0.07247874636561932,-0.18594215592037794,-0.3357998555891477,0.7158272866516264,0.646737941187102,-0.83762489763118,1.832213266652395,0.18464918621433113
-0.03396125383341264,-2.295984878907942,-0.8219736092013227,0.7865967683367625,-2.0318750963102135,0.4396264551324766,-1.8720542187057396,2.0590767945196435
-0.8100820862365751,0.36014076869778877,1.2042718197548532,-0.8703716576365121,0.28359397462402725,-0.7318946630599964,-0.9765177284555006,-0.14925268648780515
-0.38281279942393615,-0.5831585110734796,1.2673740560612088,0.10901212511858793,-0.8934219847189283,1.3661037279173502,-1.5474456581431337,-0.427480083560215
0.6852551169926934,-2.023545242170471,-0.062086391706591755,2.6075747284117425,0.7915727974338176,1.2810722814638689,0.8474695728446884,-1.548375531562856
0.6955707471214047,-0.864287559061941,1.9746720253553556,1.7430363782581033,-1.4703919370261143,-0.6280632899289282,-0.04775491913057626,0.8209520602897028
0.5640875663514671,-0.7522720333080847,1.0015750940271166,0.08597821740616256,-0.15274012091830003,-0.3492134207618232,-0.8074822484781989,1.0040451883608728
1.1770896645910938,-1.9839127756003538,0.36089357598472604,-0.6941366226381659,0.9308156079359129,2.0416487290691334,0.26532288427253947,0.25260050050835126
0.7972818302777062,-1.3810361535742124,0.575925974902622,0.5604942156899102,-0.4272527674631692,0.5887723603111289,-0.8955383523484082,1.973308354435807
0.5929734042905713,-0.5467497034844436,-1.067691795664887,0.862358693609982,-1.3093979112852026,-1.5019068061766037,0.1828112331141249,-0.5866179986397309
-0.9226571148692941,-0.9946935104811966,-0.2947307541899575,-0.5258813316970493,1.1240142091623408,2.490524479202952,-0.05563985520430973,0.7285841699828502
1.1658172509430085,-0.23492317887570768,1.313995482836854,-0.12471678797198174,-1.1384611682061507,-0.3828602001268442,-0.436842234826882,0.7134303394033453
-0.423754507581111,-0.3745400074285286,-0.3305627487156959,-1.042274899658847,1.6600950259054656,1.0778550509685878,-0.5788147527969746,1.2893965275052726
-0.34600181280042763,-1.2196311279203607,-0.5341885548712144,0.5694937784813661,-0.3284063571643261,-0.18843823765751747,-1.6333988231045204,0.6053058711946
0.883396069387325,0.3805275769604208,-0.6959618724170948,0.9355012963851645,-1.0179019010023456,0.6425143182286764,-1.084364019567054,-2.599400387142918
-1.5595836231070261,0.16989775010712502,-0.7214321748763319,1.542464732602949,-1.7565031989755722,0.42091949344232343,0.40674152800772656,0.2597439755149401
-1.4818735262909521,1.7198576722531183,-0.31392833343797105,0.8665831215355599,0.997664733413009,1.6786190879057354,-0.2564498203985005,-0.21538766329246758
-0.7370055485196486,0.9543334517965043,0.49675238196593086,1.0243108294970185,1.5459963366422764,-0.6328407844861385,0.530580217716756,0.3022946648910408
0.6480524576956479,-1.7003710939255925,1.5875886587703365,0.3613568466816895,1.368969457736064,-0.19912019528300434,-0.9506174555099743,1.2918443906808945
1.220016560522774,-0.1733096063201665,-0.8112168844137612,0.2635585726994907,0.38501156848093615,-0.257507152341543,0.697770429548097,0.16441685654229243
-0.1856216199432852,0.5941469866539837,1.431287030543086,-0.8642499084226158,-1.9564260144099583,1.250088515232452,-0.691995528930302,0.5325101230408908
0.3628350891908891,0.13794000987812768,-0.5445120921108049,2.419538675806015,0.2092737052099687,-0.47929870298286964,-0.21999034536440687,0.23206559148088812
-0.1575013446765082,-0.9586841187985303,-0.6114719737949944,-0.5431987550023992,-1.3442955614552667,-0.6651204013545543,-1.6538736621479149,-2.2058036767988662
0.10165619359659597,-0.9803020555631259,-0.8698938573319978,-0.9596837220496623,-0.4009612442023597,-1.3077919130089641,-1.1370587099716156,0.1494525507937279
-0.727679403369872,-0.561371727977399,1.4579521148954429,-1.2656548648808723,-0.5599871510295882,0.33301778410132576,1.3746435407497009,-0.2325684017311056
0.19918821047759774,-2.355408498693577,1.8513256617456522,0.9455544932444834,-1.119800046686209,0.966657456568858,0.05673727261732795,0.32644294161887377
1.0210170648097499,-0.15891489181692345,-1.6277351961955082,0.5399893439366827,-0.8304579126883047,-0.36374652918961464,0.7271938166965121,0.44059022836911355
1.4079565354891836,0.7844839022475664,0.6452622372548978,-0.3850498897059959,0.39474519917732853,0.32730254373364215,0.0641633656298851,0.588608266597624
-0.5444797584096306,1.2976075547953758,0.9604284259692191,-1.0706524276648632,-0.8484268725694543,-0.008091114092630192,-0.7256280870472391,1.304985790831647
-1.1454779341510006,0.4158582959501021,-1.3400201251226485,-0.16850844715810864,-0.9459092691133861,1.0960492434733387,0.6875580336133823,-0.6037046863269783
-1.4479508244974577,0.6616502311715705,0.05612806658280342,0.29352776673559017,0.5015287701461799,-0.03765553092124512,0.6622202140838952,1.1213221790971135
-0.4285303790907478,-0.403767254386534,0.895887741294612,0.23351363389595162,0.27541982938726617,-1.0735450425143958,-0.08327152915217373,-0.21840166494829866
-1.7190505639471338,-1.6133834475427675,-0.07500684247545296,1.4849466511303822,0.9924117467540462,1.6720164934326058,-0.4555486490309739,-1.0619613142727888
-0.21060248590245195,-0.24539460103279598,0.19384869600896515,0.6261756996384669,-0.7303602611456639,-1.8103097657906568,-0.06721449080045952,0.6990171017637126
-1.5411863559721657,-0.9045547648948656,-0.6863787845045081,-0.3858078670726776,0.5856087408941996,-1.3339435854931578,-0.17300356504206943,2.403932774706368
-0.2243725436444501,0.32423428752167166,-0.41447062973145093,0.13290831982159873,0.5304686519830165,0.04672605490688113,-0.7773799672559405,-1.203970413729267
-0.6037924669921947,1.8409720905892197,-0.5085777914310526,0.7440620108254412,-0.3090351858880634,-1.083274150208756,-1.8024261987656234,1.5188626858724743
1.1230010423250618,-0.315833318686698,1.4014984529187673,-0.21816056029082714,0.05327310839314528,0.7347343787631256,0.6579940593574182,0.17209787867677384
1.0320199341492204,-0.03473567023831088,0.5907007414654741,-1.2264796998307153,-0.2662380703085338,0.5082105480630758,0.3110694167076973,-1.279657302480323
1.320614119260244,0.8661070080943571,-0.2427366931844196,0.7471626382389122,0.1080477699312675,1.829117637308832,-0.27777065030882586,1.0870472026673847
0.9176316751292866,0.9839583552910328,-0.046077946253510124,0.04820090268817698,0.6661339541101566,1.3576142966048559,-0.22717525663277846,0.46792227375568946
-0.1382811377035908,1.7970691505016652,-1.19323747507958,-0.3610629924240336,-0.3638904631313888,0.29805135884068,-1.301144301256869,-1.3401743853091066
-0.762659771991281,-0.10433332578797176,0.5578159368886532,-1.973876548646623,1.123078721806102,0.06627716762400908,-1.144901768733243,-0.9740631908642806
0.3875966401410243,-0.6180764179311602,0.4797654398099968,-1.9452763724327258,-0.18599146676532066,-0.10082202469333834,-1.0195887431193404,-1.6925432444602708
0.2889703108225273,1.553009428169892,-0.9753948716309017,-1.1220358431004884,1.514769587595271,-1.0851655724817912,-0.9978908538841612,-0.8412986226740611
0.9211015918104243,-0.06307970507965156,0.7666599110789284,-1.213664647681799,1.1047283859795103,-0.9696777620346629,1.275969410526454,-0.9628301640253862
-0.2575969653760327,1.2673217228633453,-0.2850725774303308,-0.06966936090792843,1.3172935244451343,0.8141922316575295,1.3093278533180297,0.08181105966146186
-0.5364867439507103,-0.1573552233299538,-1.3217667497967474,-1.200357925854692,-0.34172521112251436,0.026234099724316683,0.12806456027319385,0.12572329587010428
0.6438261364266618,-0.22118055614780924,0.9137658185852097,-0.9776890620055039,-0.5410775356634149,0.18966191770046134,0.24422836197536488,-1.7589691571954122
0.5824019337221951,-2.078870912992953,0.31178923685744864,-0.5160168978247497,1.5181938301626028,0.5720260971538923,0.6845145549724164,1.200986699042424
1.4226401831371973,-0.6671778037821594,0.8321758727464652,0.5969812466116527,0.4464082232907304,-1.1345596776340183,-0.3244434710998232,-0.5827946724720446
0.36775078153460794,0.03566718428562575,-1.6419225209643278,-0.06468808200680436,1.8523085063289741,0.4125049268231546,-0.8674967072030146,-1.8770680655137857
0.12421239769309915,-2.397131148945265,-1.5189691843145672,-0.2888669294816364,-1.4067518730843185,0.650306943190492,-0.4108849048685315,-0.24396425970960467
1.4378785746346976,0.7396021676175101,-0.1446815242194132,-0.3976697616840309,0.43307390612994073,-0.5745592837697431,-0.21995204881963026,-1.439465804133306
-0.726661295649657,0.3648379697233464,0.029859363737379067,-0.8339661060178936,-0.5952243691048822,0.3479134571431327,0.6435179531961861,-0.31680069557347973
-0.4988581266761332,0.43373635179013087,-0.8778584693472127,-0.6601154207258708,1.7645769997784837,1.1396469261224853,-0.04716586908879244,0.645888627770326
-0.06428116304575851,0.3460892026715341,1.3187967638057814,-0.8458575649401344,0.3356119550601616,-0.7554488418179343,-2.387065165313247,1.8296589032304278
0.05318912728386885,-0.8532878889677824,-0.4886805586218007,0.48801352735413933,-0.8770941223619111,-0.08179163899127696,0.37093506639461027,0.2679296321266658
0.1750195665925372,-1.026384543719781,-1.5792338890080455,-0.28915260730568704,-0.9033947219689719,1.9219505288919752,1.1869752225870287,-0.5033458401704144
-0.4309278136590443,-0.30632104370394875,2.8144833552370656,0.3454268093782488,0.07670389021571823,0.11409817555563027,0.26475913234193843,0.07660543384581833
-0.05674134598041118,-1.6919881931471354,0.4752476103936192,-0.7613469826865198,-0.025226474925113398,0.7641855150941428,0.7802059660677952,-0.4190954671010995
0.10388187762703134,0.6664115086232385,-0.750106857212596,-0.6167102210592355,0.08344297675797027,-0.39391432903953744,-0.3569555242021415,-0.09002339935757288
1.7489274039926286,0.3431101423250489,-0.4972275859856267,2.2624122648343663,0.28297999620012815,0.14630277082835405,-0.9286069472817929,-0.7080046568245726
-0.9104074458474702,1.2627140288623961,0.1563005913467374,0.6118164290836885,-0.3542456433018195,0.42284181579895214,0.6886365083315128,-1.0653658103431167
-0.9433989803399166,0.9362953975091384,0.19151408648687163,0.7489526566117479,0.1628472829780863,-0.37811683305538846,0.47897617021091043,-0.32042696310723656
-0.10991203425943533,0.4453738111959173,-0.530935518286531,-0.7946228210903331,-1.8393635058888935,-2.1940683899808904,1.4560219319464052,0.840525427713683
1.7795343979589024,0.7323302485433034,-0.857227961190558,-1.039155600827872,-0.18824164150276393,1.3048646301893905,-0.9083715343559968,0.1707604152593899
0.16817176660909744,-0.22293595919149814,0.9567591846242455,-0.8823897677259548,1.5892049486365263,-1.8372824626973003,-0.4133778171223603,0.12141841357903206
0.02607740815586856,-1.951611844356157,0.5923647987257167,1.8540558652666297,0.22426367243451742,2.5687963585832705,1.3489595418517375,-0.5933821836001859
-0.9111403444007565,-2.26660311715997,0.2687720612354782,-0.8051972747053284,-0.4857471160877383,-0.0929117010345162,-0.055406817275892785,0.4481298198884193
0.9148702701782124,-0.4096138390600761,0.9975482224035428,-0.2529842551227643,-1.127312312603337,0.2453826468477133,0.49224772551931434,0.8792218477600378
0.8699478557534994,0.9814275051936966,-0.09208779352532961,-0.8907327658051343,0.6202815928325364,1.0990478692448573,-0.30578312655345474,-2.0004469516683825
-1.0872061695167783,-0.2482651226901763,-1.4813684026547664,-0.12059923750784309,1.983455585915129,0.8978157140950539,-0.9253135049787597,-0.47579773547174037
1.4705787690245122,-0.8506927582884716,0.11503626561225747,-1.6883739971361242,-1.2568461724711166,3.1773549092316262,0.9539516447126261,0.7043686487018855
-0.18126609662372162,2.2076101812751627,-3.5326464239401436,-1.668393579050195,1.390871569126678,0.9495950059713841,0.0016469378323572907,1.6914602737227458
0.15064053754217463,-1.0126372465729796,-0.20582311262016995,-0.21236938084313334,-0.7118852307577336,1.3486421736272642,2.3683703649077765,1.1594245381251185
0.3403478241211257,0.22221911563111238,1.1704261272633645,0.08518341429795954,-1.0364396297717857,0.024899442089448123,-0.08017774689439003,0.3956037470862962
0.4701707787421501,-1.0934615144073025,-0.8521426185408529,-0.43688415840100164,-0.789029964177394,0.8551805179161193,1.7164376019363417,-0.6913261826252897
-1.2398974998972498,-0.690083516433494,0.7445821101369837,0.3669408405175301,1.0027295690663327,-0.12440180463633667,-0.21828279398891606,-0.9562244431823061
-1.5424885303957083,-1.890732816727517,1.158962466609017,-0.21493607938402345,1.9039327717256904,-1.1882364262024445,0.1283189407378811,0.3839732140949885
0.34252618538878,1.4252205254036392,-0.045780389704155926,-1.1218481996423022,0.46708155942091684,1.7739746119837156,0.1500868582789281,1.0737081528505923
1.036384173352628,-0.3613560851094433,-0.1468459563374763,-0.8442697219127847,1.5236568846694398,0.30899793512366447,0.7951979986998767,0.019114082953513363
1.3245714340090713,1.211725714599859,2.421389140293524,0.8308637530036146,0.34480069058823637,0.5763179673805213,0.1766741199505684,2.108433697326683
-0.9132161054022637,1.4728253963056,-0.02634318306572399,1.8135087512939696,0.23615622542690157,-0.23481755404102414,0.43802372732569445,0.9263258774526727
0.5429283813357242,0.49565548306010837,-0.07900561878589055,-0.46122702432478796,-0.610421956365269,-1.3200606065909393,0.3400723877745486,-0.840928245125187
0.30268337671503664,1.1135742449008526,-0.6830987664628825,-0.2947670789669816,0.1132782742165582,0.6537047227931734,-0.7542824764778279,-0.3827432183279975
1.0511569925937971,0.015413638250309272,0.3706979453162081,0.7014368498521918,-1.9561325804613179,-0.9445903334390112,0.12252678976442485,-0.13611151949119518
-1.0866255182263873,-0.4104989769466887,1.5422379179499075,1.4121064864801272,-0.9120991873254045,0.869421308212437,-2.4056748585896672,0.03502149654450693
0.16441056526595202,-0.0805057516040192,-0.18079019730339851,-0.1561814032375024,-0.6943630911210129,0.9219329473004954,-1.5007710270718977,0.6449327807739187
2.1300102246094474,1.9582427798574848,-0.23213548461428452,1.5187274839207074,0.5001788314328436,1.5607333152753382,-0.2738850631094555,1.580946557944238
1.984937114442963,-0.9103896752354328,0.13379101914222494,0.963824734919292,-0.6585019475957519,-0.3435984837024905,-0.06325387745287558,-0.09919818995037057
-1.514845757099742,-0.2762692135382252,-0.44280169470606306,1.1512803643404417,0.7605908349724552,0.675926132718227,-0.659155553222002,1.2422586186539166
-0.13500659964099215,-0.7906117226609854,-0.11647612025559773,-0.21164626896615427,-0.9536682509595807,0.20021685127999247,-0.3644952527709433,0.7064637712720007
0.9798078496908645,0.5901529207199103,-0.6351293559542541,0.8528094121816362,0.6162549519510584,2.446929264659407,0.08103842290388232,-0.8869727562150922
-2.3247728418464964,0.764275595756481,-1.887186170924353,-1.8203428585435786,0.06209536718916482,1.1854858813346842,-0.8673711571910969,1.3470812665758822
0.6556067876711827,-2.2618892053340267,0.21962685276008403,0.14300771775972212,-1.081478483611484,0.5164286469229987,-0.8914936282761889,0.20436435907350597
0.7954402534432902,-0.5914492931360523,-0.1872729544257997,1.043164576882681,1.1718866519365987,-1.4833849150383478,-0.7464690627124458,0.3933309183572485
-0.04708574656822089,0.15574695217795695,-0.773512368121957,-1.7419485622247608,0.7672492178859748,-0.4556692335715801,0.1874700186632923,-0.08066319055423443
0.40016220676652864,0.6268242311150379,0.525359727266513,-0.18138861723845268,0.735447939685778,0.5024296630912112,0.20782147324512157,-1.3957633575573238
0.7378673252147784,0.8551649676161697,-0.05373699973497326,-0.6106589680451172,0.6051044249832638,-0.558947699135417,-0.0022250944494112386,-0.3948874308889428
-0.23721873373504523,-2.3203951894211117,0.19924214104939147,-0.5333828361572176,0.049381283071431074,-1.4974325278388438,0.6944924535602539,0.8328664644932999
-0.7278987791492001,1.2404445356712706,-0.7236581073140312,-0.3252616466976593,-0.6721827180929263,0.3727815996701558,0.17631439897114148,-1.1988567086282444
-1.0908875612664553,0.23805062536139873,0.6665036459046503,0.1202823723780196,0.1444476869134519,0.45820237589347496,1.5024225615244822,-0.16991179019568198
-0.23236372349464351,0.05620728007007225,-1.7638917018920337,0.0021907928989252966,-0.8548429048888825,0.3410104451361644,-0.3509575008302041,-0.05284935671550173
-1.1535857807939567,-2.133518922862414,-0.46845916853802516,0.41216812702111016,1.012199659572241,0.2471318448625858,1.16975752188712,0.9622794366209029
1.083876682550284,-0.7272868145739213,0.6637395820875922,-0.8480365804277791,1.430937855832942,-0.6283900181514859,0.046676011211851456,1.9604161367672213
1.4255259559726514,-0.908239391908729,0.20377323438365125,-0.49746687320922117,-0.34790202081838256,-1.084840705082931,-1.4924992812337725,-0.7202415551365042
0.7781593029461342,-1.2732823629507917,-0.9480701032013612,-0.04439221480300241,0.6578031510968746,-1.0924340782882862,-1.3060801762592287,0.4242901851681722
1.1475239775821247,-1.918188504854533,1.0151869245580283,-0.21172753090061214,0.6062964459359053,-1.1398522819234207,-1.0408859204088836,0.22061758183734279
0.11344445255071035,0.9137592362105884,0.8690371248310231,0.8573167172284585,0.9946164811896921,1.6933100765131472,0.8795352806068203,-0.8620765638810604
-2.533804610057703,0.05796312126209377,0.3666467879826203,0.4780770526705092,0.45899918304316156,0.04902054270330624,-0.6064625019429426,1.6330586786162906
0.5267685508019097,0.1186583113378164,1.906803985142386,2.0135293076968077,0.3884414666001278,-0.47071980019019677,0.4162113363346849,2.152213317453791
-1.2693698842435432,1.0034730257495599,-1.1345678647487294,-0.7778604630976623,-0.5778047806114629,0.714887454078009,-2.79688062163934,1.8054664152235544
-0.7470141234968343,0.3783749901146184,-0.6319506785065429,1.684197539683287,1.9161003154844058,0.7215716646823235,-0.5132195220018122,-1.7127302193350626
-2.3390686180373996,0.9666559255759649,0.3934043426980155,0.15621665206049534,-0.6394543830986057,0.27388665411135016,0.05186477336624304,2.720591275445561
-0.02383053914002074,0.580188315603129,0.749458933909658,-1.2496551648543133,0.8602987070477843,-1.1463174783036119,0.3896871478318814,-0.29880706461405365
-0.8194571257738388,2.3296741300581356,-2.1085085236782386,-1.1640332629733026,-0.7548913894224716,0.12222122411712547,-0.9915728657104862,0.4967633624300402
-0.33238818182007973,-1.9622408854785107,1.1302427960887187,-1.5506303329516289,-0.47492073383395456,-1.323188254596071,-0.9051706544539306,2.2274785364191665
0.6043320345498452,-1.1898641612774163,0.7016093486987381,0.9273813100718376,-1.9572956562013915,1.4159248327136693,-1.47898841001507,0.042984815199441806
0.21487335590953827,1.5322805452690098,-0.9078223205554433,0.43499398802253925,-0.13503933318349196,-0.705685048296492,-1.9309779642347034,0.41339918088639704
0.6012862175980249,0.5087088615743267,0.13712907222112122,0.5648595187018289,0.12572532553041538,1.3215847166096357,0.1782075039778859,0.3364145921385538
-1.3027401184823577,0.9600875737413214,-0.8611436634871933,-1.9323719957759746,1.7188631621488328,0.35624041431479614,0.33495681374224046,-0.4112346405195935
0.7531181210373749,0.4878831717070314,0.47947014335948074,-0.4004598690423761,-0.11134317057961973,-0.9927131456538366,-0.3302054637110202,0.21595849480511597
-0.3349749998967829,-1.10732462430703,0.4899735188323104,0.2721082171933287,1.2517641137712912,0.5591339182341782,0.6048324649236894,-0.10032438507801086
-0.5752000663032294,0.16533422437839473,2.172664376958909,-0.22008129139642596,-0.9621957358409493,-0.025615256547337196,1.5423087230705184,-0.7735898673657844
0.4501132199996767,-0.22252306593556728,0.26370459452945494,-1.655128236808078,0.41938690127056905,-0.5737924654207288,-0.686333074877686,0.6375171053486787
0.911112440687686,1.2502288861865767,0.21916192971569715,1.3529315884353503,-1.4088302828232286,-0.0905878560687967,1.110328729135205,0.14220058700128063
-1.834186976201724,-1.1174978740395798,-0.5575371013975555,-0.5264023473940825,-0.20990343891461608,-1.9149247486480085,-0.8445979483049852,-0.5345536756784733
0.6758980415709838,0.5951510953063942,2.7788389975877883,0.5582092119727565,-2.1949990885772244,0.6982527124631454,0.7044500698415085,1.389339103667586
0.2685740018037579,-2.3947972201613426,-1.0920643777040326,2.326356206882288,-1.2046451452994311,-0.0824322919641354,-0.39109559090361096,0.5722477749803219
1.3878748187597147,0.9260945836204009,-1.2344790148843021,-0.7584927318350843,-1.2197786748561432,1.0500849459893344,-1.0551330505960643,-0.3675810440521294
-0.5188318130843849,0.3951607375334377,1.3867042410488557,-0.4450134261239233,0.10813221849231788,0.5298856533658186,-0.5133466866226786,-2.0137910985918364
-0.1004090955979715,0.06774111199567448,0.33759513475692743,-1.049882782688279,1.1692344306511282,-0.6936902864982901,0.545626110651066,-0.6897138043042045
-2.2201949444624374,-0.8614688327616487,-1.692477690264779,1.2811874923383877,0.4255053018726417,0.16951924086512707,-0.29954010101871553,-0.4397018137316335
-1.1881795301261706,-0.26423559470710606,0.9749943962662174,0.3609291285958913,0.35000085256334545,0.18718250984083448,-0.10658587019289296,-0.1519382721288052
-0.8496096835198204,0.22619684666116285,-0.5877367215851186,1.900624577432653,0.376880934079468,-0.622866813089735,-1.1095646814523399,0.4108522445912748
-1.1497641353211372,2.016370473578451,-1.3680074775041517,-0.7787333839441822,-1.228219858559828,-0.42401221343721024,0.0043396248502461056,-1.9803425726221309
0.20207774843917278,-3.2488049736881215,-0.41466027644114484,-0.35911993050906743,-0.23625750634083717,1.282399209262171,-0.7427389538752809,-0.8323833619422075
-2.5500336137034685,-0.9121618402252004,1.0751264531137257,-0.10065118188154767,-1.1349223411204508,1.9227348426630009,-1.1857215173801077,0.46188513900451206
-0.2993108137385886,1.0900996906041687,0.3125035902785551,1.3083696365624562,-1.765428283043235,1.92624380231556,-1.0379316720097336,-1.4675318494841563
0.20036553044700472,0.638814785886479,1.2833521199390197,-1.1096258745259437,-0.7211395427989111,-2.0704716077264713,0.055233139541103954,0.6285104327867019
1.0694693842178693,0.8994008665807858,1.1054220020660628,-1.471367818908343,1.643986732576825,-2.963574723404969,-1.3431591662582678,0.6348546546121616
0.2476840642711913,0.918182816493282,-0.5776156532422763,0.2588104026361086,0.3846364131709577,1.0018015426007982,-2.170478301816456,-2.189979088029828
-0.7430348060769497,-0.7367658022441467,-0.32262088792135485,0.7371420489947852,1.412483517016453,-1.2671008144611968,1.6821902577093792,0.045689224896346414
-1.2779209630812909,-0.5983647813464523,-1.3355546656933284,0.7559579916316601,0.5454485311944637,0.09910979018410007,-0.036763486868614664,-0.2225102877233776
0.8098998287825331,-0.5212848212899479,1.2053521016114217,-1.0460227227172991,0.990264314428945,-2.0020296113022824,3.8258579498662146,-0.2336036420529369
0.8998661821202161,1.3592280100096714,-1.1036784360166665,-0.9869828531801761,0.3213691648538985,0.29432703390614934,1.1560091463145286,-0.938122751655594
0.19174819455755623,-0.43400136973724784,-1.8473813029613495,-0.6509879444802387,-0.019173336050346483,-0.5340807901041941,-0.2507828411950526,-0.7090727403302154
-0.28269887656415993,0.29677671361039915,-0.8913671667305284,0.2701977737234669,-1.1389401529426435,-1.055481726962753,0.30719787163327744,-0.22914492504327094
1.107185423766873,0.2351587868840369,-0.8333729392310718,0.5139590475035025,0.3052081093805318,-0.06883408055596373,-0.448839853780669,-0.26657523736124444
-0.8578312315364722,-0.2995044383489881,2.3031827824027684,-0.0643126883486169,-0.8165541992203734,0.21569373657342353,0.09065253730894467,-1.138426910816986
0.7820375415182123,-2.648466769625993,0.273826093549698,0.32447307801371134,0.19355502820177853,0.15746491643776112,-1.8495218673626563,-1.6456175752947981
-0.9787523280344654,-0.25091363198226374,-0.6749506063973423,0.945521694743237,1.6367083010440822,1.3897959911620081,0.18127431819304002,-1.2717580858493904
-0.5421919889665331,0.5457138095006818,-1.42495843131135,0.5290387316480172,1.3986766980311731,-0.11352780170364722,-2.4171132592403555,0.45548039705621796
0.4868190192753043,0.9099843895425899,-0.47590403538722703,-0.6751508223097067,1.0440637593520123,-0.7816171014006227,-0.41567146601058447,-0.7533187990718395
-0.2977258504761138,0.20615035602722825,0.4263250485288987,0.2147674712907918,-1.1470166484017947,0.8096225119630739,0.283080777212559,-0.7342617612686158
2.35731387309049,-1.03937087040775,-0.3143769243667045,-1.111545227776485,-1.1119410474223548,1.0618519187987052,-0.5725779554544066,-0.3820833647989893
0.006391315875076314,0.13273827572760044,0.7411038834249459,-1.6271608594629148,-0.4540886367987448,-0.46214629960431064,2.0029120971620205,0.019871734333124974
1.4540239042641299,-1.4388500980598367,-0.7065732325563342,0.966334222693562,0.4718566638354323,0.17688551098078023,1.0822660435428169,0.9880639065566931
-0.8686551011342858,0.12206171832955975,1.1020519097610275,0.13793236099802988,0.12760205185120257,-0.2612891622072924,0.3384989801170655,0.6974237689418762
-0.5110699177341487,0.19123867675767234,1.7360598042453763,0.12451675998085526,1.257222811940143,1.479950576653475,-0.8222757620676233,-0.6127093800119905
2.1167160013489785,-0.10177832995610067,-0.24462996769209452,-1.050913181019987,0.4095039568972684,-2.899738468802582,0.8666357480874395,1.3183365702971894
3.0060368408445117,0.6732591147098951,0.9238215535062073,0.42431056368917097,-0.2732518593007447,-0.2779817584210523,-0.9260355184174192,0.09698161099304796
0.06000977037576504,-0.2780340328363599,1.8085036717220637,-0.40465167275739644,0.35634443921832304,-0.9939692247086309,0.010723392585698346,-2.28344649336352
-0.007972118697140589,0.5583361389513842,0.1455157537102263,-0.06500233233869927,-0.6184876418673179,0.41731912961712014,-2.4445083357819373,1.4984373642561841
-0.706841000081927,1.2914691363077948,-1.8147294433619174,0.7865566796122696,0.09897251710115175,0.11677803502948726,0.3716061505370925,-1.1994763794181842
-0.17017291350297406,0.21060080256717076,0.8180783172516666,-0.41686413972050407,-0.45115352731917896,0.4522871655165386,-1.7364669313518153,-1.0568044623469175
-0.4656845266787918,0.761511838064362,0.20985689367222365,-0.3564515860896513,0.7470692072707047,-0.04466920528237348,-0.41727974763329057,0.3982734739652209
-1.0263883976579329,-0.24835764482352962,0.46830581880952166,-1.6300168912524127,-0.41982295742450265,0.13162445278365192,1.7215991193467766,-1.340305366455268
0.8804266087487139,0.23120497146484845,1.2270782475339619,-1.2949066462384633,0.8990413625586475,0.7167556569374106,0.020968025777402723,-0.13085074329106444
-0.31449120328085767,-0.09346574613371121,-0.7861005738792195,-1.8707279012969569,0.899736574944778,0.5969628163830888,0.4804676104628632,0.13339548045118144
-0.1630217406852847,-1.720061632749268,1.044710919750878,2.473953854623934,0.4903014995741335,1.530938573373519,-0.28017597545794004,0.22637536118342744
0.12681853699622522,-0.5773962871949857,-0.6124243227538898,-1.2839968829747832,1.7274000593021164,1.1289390583631602,1.2814576807272502,-0.6994700999891446
0.2805834013796733,0.9073914859017745,0.6940159729764418,1.3242793376783402,-0.7483815666598992,0.8171253215628205,0.8020509290944384,0.374970676457658
-1.4517370223687096,-1.9807585758571873,1.9603329856205263,-0.4898249373034285,0.02187423065556557,-0.4955230295464153,0.7278015732142317,-0.17122998577376586
1.314925170265279,-0.4057934999114062,1.3162344368032746,-0.18629602390406716,-0.026139664791037243,-0.1213661606044854,0.4649951410135971,0.3873665631583914
-0.9311219309901073,0.9951704168938238,-0.12304433898952,-1.4867499497623884,-0.7983712273426772,-0.2780471669030808,0.13288470694277704,0.14913092744713477
0.6809228523525863,-1.4795519784065463,0.9149962426470233,1.5303799080206493,-0.8295968999963962,-0.3579421500737678,-1.557170514587101,-0.46197846702301476
-0.07161734232611122,1.1514215182851981,-0.7663721902444884,-0.769433501639179,-1.480859283408642,-0.15191938956624892,-1.4480930105324334,0.5524044860909919
-0.8105969964040939,-1.2828068192608977,-1.4474944919193509,0.3973613682870693,-0.4612674039555701,0.24840371203479916,-0.6752789657043222,-0.6436072236478373
-0.8922696679800668,-0.836707490645164,-0.07556888328390732,-0.26859057548640636,0.8459474508049297,1.423166100893948,-0.24833927577316242,0.6533888058389934
0.6536445681202736,0.5776207170936501,1.547703398673219,-0.20746342141290036,-0.31779300975354735,-0.6689701582733887,-0.29325046811416755,2.0799893913080476
1.0364688990508382,-0.14862032639420789,-0.1414753289681167,1.047832795153029,0.8052607420559635,-0.7038338843308609,0.6781111486917949,-0.5183047599536182
-0.7318489511321238,-1.4227865334535625,1.3861330464967447,0.8166238175964189,0.7901554636866386,-1.0355830805721309,-0.46090985359596665,0.493658384993033
-0.7949897923048158,0.48189910251047413,1.4155676968406616,1.9086828558761912,-1.7002789976363912,0.1962338769347979,-1.7531195027456736,1.0463360860190567
-0.2528846351068712,-0.27003386021971204,-1.1996716174912614,-0.5094141522720742,-1.7013473436050408,-0.9151589674608746,1.1394320519403662,-0.8050992361962798
0.8061166463305391,-0.6925911307578219,-1.0329721080801961,-0.8743789277574554,0.6877535773614429,-1.038423285521394,-1.7842426896380152,1.3783751849540617
-1.136862149915851,0.3243692021616257,-0.21980127211209574,0.9707187826470733,-0.14851194332001527,-0.5928701344108134,0.219115285700637,-0.6136771121993853
2.375443259519396,-0.44097799778003566,0.5836082920254883,-0.2600490739539237,-0.45491431063964693,-0.7966723524569471,-2.0920461292018144,1.0469642890178081
0.8579509089211605,-0.4757114641629619,-0.8278391803651409,-0.6491113920321677,1.187011393008259,-0.49676258691364317,0.14529961627174276,0.6624567661967344
-1.4804631134795874,0.17984493731425188,0.135487442240878,0.58542399256643,0.4500567284478585,0.1345710537662444,-1.5640409179153631,1.1147584568934632
0.40386740465057264,0.7745106608109724,-0.3366528063815739,0.4578202182672592,0.43049579767041246,-0.34832797236626517,0.6753635694312019,-0.21388311850509903
-0.002202161261317631,-0.20589771596809092,-1.3992383650178557,-0.159259235706749,-1.5317645683195387,-0.5253299022448057,-1.757485347861178,-0.4626097959469089
0.34531319880679917,-1.5725091443785586,-0.4133089994649121,-1.984683979247206,0.19205546680149688,-0.027672335436998728,0.49868361992711346,1.0618779330298898
2.012722423032672,0.5004631711986625,-0.0909471571946128,-1.8288452068308523,0.4877250463804723,-0.5668765018078732,-3.2278804722610226,0.23426520125857495
1.888480094595076,1.5645243220916343,0.4840517388791408,1.0506560731034504,-0.6541997029038797,-0.08295319981788282,0.21000481011957164,1.5561244284263873
2.627754703336553,-0.06143679570054799,0.7338459626378877,-0.5595462149212626,-1.7885274924416512,-0.3364382973030448,-1.5445444286090264,-0.24295181359929532
0.8514374621148518,1.0710443268430765,-0.42157334375429584,0.8774526816193993,-0.058749935746534046,0.22888478442178933,1.0776485787463412,-0.465643380868578
0.4163227410960937,0.9548990490793684,-0.38663195300114706,1.1529179790863482,1.4156067698409682,0.4428595666528395,1.6487282977451214,-1.419654664286619
0.7813155714364964,1.4032641747946266,-0.7729378999528393,-1.0113755263434603,0.8733851562255024,-2.1082391495217845,-0.5424192881122096,-1.8613608337134604
-0.1508943424458743,1.9745683404889507,0.2773219716870152,-1.2398982268551928,-0.5529606858308709,0.558644220487541,1.9952357055390673,-1.518537336616239
0.273276623403263,1.5420519843404634,-1.418368121403509,-0.22543580580782496,-0.3450785017308075,1.8146000215961215,1.6169030550207606,-0.9927505247029083
0.6742503521487784,1.420224750309641,-1.2446951963280406,0.3434450410415615,0.3244398947399464,0.3076627620716593,1.8968203149466658,-2.314355483841232
-0.22987509638211343,-0.24363327434330348,-0.6655429564546084,-0.1315112396548931,0.9947886024160189,-0.3407308011698272,0.3630327143607062,0.00923968022551765
0.49875436564629705,-0.9127390678102246,-0.31338900856230983,-2.2228265373247535,1.2458600544797902,0.12336526270276933,0.7805832022264692,1.4326298156593633
-0.48272205256859396,0.30507464978035964,0.10965634850310618,1.4732105834064328,0.6148333186410554,-1.7178775807335323,-0.21247086651711034,-0.25667590610658747
-1.3083984872887116,-1.2543941502402731,-2.103888873125224,1.0115992647806327,1.321413487117279,-0.7720897594907737,0.6842840002729876,0.3049687490884168
-0.6609208434836391,-0.2517048323873047,-0.4738043223092402,-0.5488472504854637,-1.533834605072611,0.6932332245893769,-0.4080797382249468,0.1276645869816257
-0.625683422998926,-0.2052329433507712,-0.378613926527683,1.3664697952435185,-0.6875244903199538,1.2885406532655044,-0.34427925846249763,1.4325329136484273
0.8395292311230125,0.8327602933775519,0.7965607346032914,0.676543184080097,-0.21799570822945633,-1.0783696455633058,-0.4798953131189337,-0.3403481844487846
1.1151370409522858,-0.026049101020914997,1.0530387924870965,1.9228595155103811,-1.2528536579042218,-0.8099647994589736,-0.5908524301693882,-0.5383986141054304
-0.229642455687199,-0.28018678036351147,-0.2507218574918046,1.0670421988763712,-0.15318466261055144,-0.5385572234360818,-0.24236744759807838,0.5915782973220309
-1.1200501051499998,-0.9751441702413476,-0.05012093515194857,-1.3297638734414554,-1.216305776324364,-1.2042355983263873,0.011228126035311703,0.13314563627781428
1.2472148719775307,-0.7205682768529703,-0.6496722078731437,-0.9118052840400499,-0.129980476165023,0.984413846955265,-0.09223734709585568,0.9844172917089806
2.348525131532169,-0.36453868518561344,0.3140556282708161,-0.021087823262628556,-0.20458735520980062,-0.5203571209915405,-0.7522625796239482,-0.44731492827229075
-0.402552271744969,0.09266159068427979,0.35489111373111687,-1.1762071320283438,1.7854625094363117,1.9008680874001076,-0.9523614492021503,1.5545470797245304
-0.3885654424160187,0.7143657552631306,-0.059086683400145515,-0.5615294834007735,1.5737865420207136,-1.5487533518298058,-0.13508008320985423,-1.7906572081800014
-0.5644257317622196,-0.7904570291875218,-0.9343433140267332,0.33043803806410216,0.09589475370984217,-2.2550664031297196,0.3688078527793291,-0.5217974808999819
1.2985344444291231,-0.38969144403211303,-1.0030728931673552,-0.17769483321412963,0.726796874411468,1.8893985378980644,-0.37253781437751726,-0.03925176824232768
0.8035500508276304,-0.5087341372705163,1.4621914956493711,-0.07082750338176351,-1.3157937230424073,0.5039287678753502,0.12407361373899554,0.5672119715069456
1.8812798969438618,-0.9259156251283576,1.1005586590963583,-0.36702661354581295,0.5014134625462208,-1.583673339995178,-0.10833471754199384,0.18377839448892175
-0.2724089292601968,-1.1609056657344023,1.142627131086594,1.1823136513098218,-0.24794171835851472,0.6047928600063227,1.1094552008114331,-1.154217203925309
-0.7160446051192682,-0.33091056241483274,0.1399836352592018,0.9787258026405473,-0.09938836596290473,-1.8773640868389287,1.431112737100518,1.082587552400774
-1.5168061649536226,0.6716242598770211,-0.5372065014277445,-2.73864146862614,-0.23370094439906713,-0.98522124756538,-0.7832950960721524,0.1752397366580701
-0.578359964932239,0.09503607880464376,0.8886390253386022,1.3115227439593353,-0.7768401863431297,-0.14567085501116064,-0.0772544958150293,-0.07761513076072633
-1.204523429590619,1.0722535949128449,0.7477600892784347,-0.07510414381176604,-0.4611288105419147,0.06006765912601495,-0.7390937293213301,-0.2991842482748452
2.0499385889024833,0.20557889416215658,0.8597610065814772,0.3579569433157827,0.2416776902055713,-0.4437581717218597,-0.3994511206215289,-0.7098122038998909
0.215257068979028,0.30924346596716074,-0.6291094568381451,0.5374885069199737,-0.21716410269183223,-0.04076693557681395,0.26198490448767336,2.3194033324037915
1.0161013042149811,-0.4554451395640469,-0.3025720193125781,0.2890752029564761,-1.832132548763929,-0.7730634952807162,0.2714422731691507,0.6072677459134036
-0.8068134228490851,-0.6283029586564808,0.17827804428897384,-0.4934517268920587,0.819395082734622,-0.7187368842042314,-0.4399640787196296,-2.1268925713352838
1.8201962718998514,0.7880414012420642,-1.4958799528135749,-1.3634226933132838,-0.6766347498909757,-0.4767049823485529,-1.0733883112715334,-0.5831171097724555
-0.5852632743449342,-0.33228951656754807,0.3237634741590507,1.624423655344115,0.3588587029992738,0.08060349744189656,-1.6234483655861283,-1.0929964756025072
1.2036565500027452,-1.1413358080789706,0.5138494286370935,-0.45401205228454605,0.9805131826665692,2.3340789801490383,1.085800382283534,0.6704552086806972
-0.30144559095299606,0.6984398399092878,-0.19391974520705516,-1.572356023787442,-1.3759701752628037,-2.704730964549313,-0.6420372026648088,0.5733784833260234
1.7915830028010842,-0.26095167792971435,-0.10569762056985625,1.1080610450276793,-1.52605977452473,1.4641193686623548,0.6502274361631666,-0.5564028524880587
-0.5420834478946713,-0.5784736501445581,-0.4394337498636198,-1.09709677619222,0.012423511587655317,-0.729599659140953,1.3857235125330536,1.7791446130636586
-0.6399985628968112,-0.3971169781316423,0.6466889011121549,-1.0191378745223914,1.4843142502353341,-0.5744079585458425,-1.424603355922774,0.769614316817591
0.047260852467325885,0.4648838350615563,0.8386586243408191,-0.8539412272791287,-0.058890596375878866,0.16993647098371495,0.19748559136695468,-1.1127205985084552
0.5042865100927064,1.9556421545575844,1.0744478823672952,-0.15484091124994476,0.020662420078262255,-1.6212523715120781,0.16856688492240915,-2.3897338287847734
0.44794337889385116,1.2159550989524333,-0.21180648464023216,-0.5571211743676024,0.6038592898496598,1.25414885565513,0.26662114291553746,0.6505546141704002
0.5362585679255694,0.6652959140672121,-0.7115107751799981,-1.4087512866646417,1.5197072526665518,-2.250876957117752,-0.14486833641999172,0.3266594304303671
-1.6056605400037214,0.35552397405540537,-0.15444760155355586,0.5022828077671563,0.8418222325215428,-0.9756171306555255,-1.5365804167328734,-0.14381903857070297
-0.05602041041980131,0.5347381909190779,-1.511958098669032,0.4496895901286759,-0.21493796763989553,-1.1048477676271926,0.7341611406268694,-0.33587577284646786
-0.35449025847209675,-1.430207872966844,1.32438334062096,1.1971979837898283,0.3439696861976089,0.34107171948989673,2.3022634551130823,1.219095578463051
1.6945064577961289,0.08083051912422302,1.266042367203333,-0.6478620430620464,-0.5185952399912985,-1.6257408145957115,0.4216573532682641,0.5533509918367076
1.3222597800313247,-0.2998022667138064,1.968489731892029,0.9654113168150692,-1.0010946665599247,-2.5825752730125684,0.1610201590115813,-1.0689480419683708
-1.514009330581038,-0.6747241174306731,-1.4453769636594107,-1.1093263474467567,0.1771537982671414,0.29691566271973446,0.06224585151038153,0.24264862525165662
0.18418186304794995,2.5310898189357802,-1.447955728829117,-0.5909941961164246,0.4808417265397978,-1.4398049654823966,-1.0973976890748158,0.22659849999049583
0.13542934210514052,0.9513927445460908,0.27425374832902505,0.12377194533954629,0.2152950222503018,0.10294946923864337,-0.03339049317987833,-1.0947869709239824
0.5428427259183723,-0.7201823575188185,1.604962021244788,0.09915294662938484,-0.10302443347182441,0.27905480813916744,0.05186029661047117,0.894774047949191
1.088902286368669,0.1594422190203342,-0.7752958100036468,-3.624786916775756,0.4714285488063941,1.430180793913965,0.6619942315023959,-0.7971889404633353
-0.09913632008430964,-1.4230276333320233,-1.0329003457846544,-0.7644896834213217,-0.5970262805818721,-0.5861202690899057,0.8407724131194927,1.3488186716748045
1.751332254891446,-0.8855511294451293,-0.19286958722503014,-0.046515435756161586,-0.3145610953526471,-0.3920991884228323,-1.0348808332900925,-0.6370823440649043
-0.16280270504968952,1.0061142785104544,0.28297970400462136,-0.8198102621099472,-0.6405859861587079,-0.9990138410571885,2.0292238156298392,-0.07216572131043349
0.23672923818038252,1.0333581599797346,-0.7501588327834349,-0.2961082121003374,-0.42573050144526353,-0.505729182096468,-0.504614458425064,-1.4236921109616454
-0.5401365554831301,0.20837983757281445,2.0819599345195123,0.7084088096372672,-0.11543889242530406,0.38040550202623,-0.23766759793271805,-0.004829481538566084
0.5233789985265216,0.16558880860084277,-0.8749638587915902,-0.2274969124124236,-0.43816048331710905,-0.32737065229167983,-0.06428689700008051,1.057279332989335
0.04044523554263563,1.7272689036822526,-0.44403281529009353,2.245949693838028,0.2869157553175765,-1.2654217919172968,-1.4274099821673925,-0.5761002685431639
0.64847734776055,-0.10266498619248766,2.326039241732893,0.25529566964601197,-2.7080724404631638,-1.4088625854253427,0.28916485193667474,-0.4541010771329486
-0.8569526168924837,-1.63602073937777,1.1850047136730462,0.4647337178222826,0.834022650756479,0.480467267462675,2.1571291769765275,0.28090806088219467
0.5798553605848147,1.0716301682358267,-1.4455691552345835,-0.9310906426069011,1.755608024794873,0.1531406411016206,-0.2647897620012851,1.1958309299851189
-2.5796028170633436,0.20447550770652617,-0.19598818733265116,0.3050163888799024,0.26246547512591584,-0.7864611371032905,0.7389854270461316,0.17717944212821096
0.8818423374222029,0.2304155550827254,1.2701856832304117,-2.1575120962741328,-0.6279160706567304,-1.3057187617727068,1.0010332821210421,0.9438469242620356
-0.14096617088318192,-0.2731696544630739,-0.9685672226367381,0.44515188459820737,-0.34793358615931486,0.9495541526832034,0.5629211061226604,0.2124007125161636
-1.0096587252147353,1.6966348148739212,-1.0323899193595156,-0.2871140977445712,-1.2028762414214806,0.3049080385745606,0.342769094591151,-0.3468206323221008
-0.8953632079817074,-1.1701629797224211,-0.8791996217159371,-1.3345132863710412,-0.5879848936003426,-0.12630655943726368,0.566266173410639,-0.07637078822031594
-1.1969427083672983,1.1743685124133638,-1.3268788068237727,1.0712731668092998,-1.682688143514187,1.1889394471033654,1.0807152090313699,-0.09773809290131906
1.3365971153024159,0.6284897460794512,-0.051150963865196734,-0.2756911710059653,-1.2754330076248,-1.8577853643923272,0.8984642630836739,-0.8850929643955855
-0.1601427760505989,-0.6276218904408752,0.8038297162865373,0.5540434470513941,0.12314607154465036,0.4240848580760898,0.31205556642875515,-1.9083042099131626
-0.3025465368604056,-0.5857141373733054,-0.5653774471882611,-0.8983069153581318,0.3180757379749435,1.6147648525581515,-0.0582794017076583,0.7842992909079368
0.5330214387753996,0.15069525519861765,1.593293884451418,0.29532580450554885,1.7889214507912392,1.5798774408833063,-1.7577341597716485,-0.7481063353401268
1.0124945490962258,-0.5121790117232699,0.8136537676650819,-1.5689311139687094,0.8491657303200834,-0.22075517723975985,1.0503690993340227,0.33452467879614595
0.5320456482274246,0.10700755681215941,0.16500525100499533,-1.4086115188015333,-0.057721655953812456,1.517574124414872,0.1689123285491559,-0.9344892909153998
-1.0342667418004077,0.09772714028826963,0.8340922576716668,-0.9450238687359818,0.5358081728732027,0.793705405662576,-0.1003807164938405,0.33533257306180086
0.02163904193747705,-1.3504497301395553,0.3532423786888837,-0.8171458372921016,-2.027774085011109,0.19635346311484708,-0.8404281134830435,-0.1097174472816106
-0.348044590547412,0.5652482832893372,0.5721352829654675,-0.9636351264290922,-1.4828665361975732,2.178136115095261,0.6775325590583323,0.3088929925625862
0.953104895933525,0.1236971621955901,-0.6896526428355326,-0.5390222362600455,0.36839940467598326,0.6323373890090578,-1.0119631703718062,-0.01540169531821094
1.4208459880523525,-0.8163746218419149,1.1089108272701063,0.35620828105554514,0.5403572557871283,0.12225289938223725,0.8165830034645472,-0.36664334291619133
-0.829970033697532,-0.9159262393819788,-1.12756579293425,2.068017196418647,0.4028640124935264,-0.546238568250642,1.076895455491156,-0.6681058538465005
-0.05934646676906436,0.024677089198550172,0.6154453331151618,-2.6101577583777917,-2.365851611201646,-0.8437774568527695,0.2580072937946548,-0.26785094535815457
0.5312866834208063,0.8768366285647166,-0.34958611001695383,0.949735039777152,0.3530308552073668,-0.5019952468687652,-0.7068719493873051,0.43094432418649953
-0.22707727003869382,-1.6887574289311391,0.2876957681681043,-1.297140881877571,0.8280772931547062,0.06414899899358532,-0.2118747546369668,-0.01973077223250703
1.0972445437624898,0.5072420785390628,0.6209229087240108,-1.6478484657826873,-0.22588322942975056,0.4640241829488152,-0.7173146101266008,-0.5649861996997655
-0.7734166928392041,-1.724940914593589,1.1463244271125579,1.463300432908851,1.4783976661659461,-0.5903278497338522,-0.14824081529341177,1.1704351829217552
0.16692055757901017,-1.7602675604949507,-1.214684151583944,0.14551136947943646,0.10293065497260824,-0.7496158505696151,-0.9427088599283329,-0.20860058467032633
0.7293970180560889,0.5468661783264295,-0.29708050208036263,0.5489520615294783,0.6953296610860124,0.6857059676645156,1.3852166970418687,-1.0903313452243064
1.1882931145158449,0.6122289474951386,-1.2370116938557671,-0.28690158778841346,0.6169124224835348,-1.6411843462634939,-0.33970778949706865,-1.0615451095221327
-0.3348662119335821,0.1736011099751393,0.6289269033706831,2.4098155353920805,2.1934275787505966,-1.117956440272612,-0.6502097417086664,1.1385913500644165
-0.9993503523613838,0.1835528345322418,0.039539900458436056,0.9168151465436876,0.6984942758973255,-1.3235471717054905,-0.3232768829276214,0.6417527242416525
1.6739721671383803,0.9864015466615654,-0.37419039915610985,-0.8736667831784374,-0.9277447698452034,0.8729377027209546,-0.681511650655557,1.402268240573855
0.4867502038366068,-1.184894297559131,1.6960322106881536,-1.3793853352791567,0.35203951534709055,-1.1772958369269348,-0.8189205293324858,0.2595963993656079
-1.772409125320473,-1.0440056748174034,0.6728183769041125,-0.17781626741686243,0.4023533514836934,-0.06515233125332212,2.0837426796548013,1.1353138365791338
-0.9738986033651714,0.34687719090294866,1.5742081858399688,2.567571945086778,-0.3698530880082384,-1.4774628686791582,-0.7458505307098474,1.4158135453514886
0.3541728319530372,-2.196505707343226,0.09471182478225613,-1.524371853942002,0.6405175382821897,-0.5935573961516397,-1.0070474376741374,-2.140657516463109
-0.5477392991999219,-0.3920633714730362,-0.1137180472727181,0.1078525864829651,-0.13913761518266457,-0.055971591565795016,0.13139805044521094,-1.266624576645026
-1.2807476032397727,0.15360555686161342,-0.13521857594845166,0.11071131487680219,0.3719299655293759,0.0645185906535977,-0.969380045036886,-0.34004713818958
0.7420291442683795,-0.2659803433665274,-0.4021231134674282,1.3179121947262,0.3876390084748179,0.34786958242134164,0.04167091897761074,-0.6569098077925466
-0.47649193956043123,0.09758660470809688,0.0032652492707609428,-0.590845154145616,-1.6225869513603435,0.9487770731403457,0.21490310544641686,-1.215285012795393
-0.2895815052595787,0.6218478080787077,-0.7647210606201694,-0.25466654694428253,0.6265180224019639,-0.26446454824860627,-0.6418364854407033,0.8020684472571628
-0.112566762136969,1.4721714725833481,-0.2569675927208799,-1.3081046911091576,-1.3028497027313992,2.2157922524356413,-0.48957318628442253,1.242763317111609
0.6676664068377511,-0.02227201107241201,-2.2934950903496527,-0.11720848229660175,-0.5224674727090208,-0.013898728769044704,-0.11275633540465617,-0.1546377234501176
0.21066250248817964,1.0584027817054276,-1.7643051514637955,-0.39352849451920396,-2.333086953311954,-0.09955926152291182,1.3240022135587566,-0.23900703974780932
-0.3547383582115353,0.7540209544750827,-0.14446007080726272,0.05895447185583724,0.8432178453337734,0.45823428644186387,0.9362284085076562,0.7920250101637247
-0.10473134920875903,-0.5691995772405999,1.2616636986842553,-1.7815489065942816,0.508144574959495,2.4929243897856974,1.43702859064701,2.2011509037094523
0.7473094582987995,-0.5704105666116294,0.9639436691030484,-0.20496316645266463,-1.5750436473057399,0.37259924247474147,0.12226669836266023,-0.2802719916824581
-2.4358535428481964,0.7883249273319364,-0.17262806785554805,0.8584230568156578,-0.32526654680099676,-0.6680338904972744,-0.5403200117630298,1.2025751620695935
-0.05419036241707749,0.8635308577987869,-0.01544318416519928,-0.6879178352807587,1.0042160106102114,0.9903724915047734,0.3453037939584864,-1.0146709217156602
-0.9456873708368699,1.9773758958601844,0.9816269631767555,0.5165485718240814,-0.5319981426123861,0.3244848836013849,1.2705264669007645,0.3716746228546503
0.05234543987280311,-0.6069846405978581,-0.6029741208712993,-0.22686336960684905,-0.7456447453580669,-0.22837247459237814,1.4048101714242223,1.1008952857193814
-1.0693766381468286,-1.1883633068593877,-0.3207318930141507,0.6797889336729476,-0.44486881365695924,0.5352444391368327,1.883014311555755,-0.7795708480802144
1.7378296753438116,-0.44991853804589305,0.864752018173207,1.147213197548042,-0.16088493260313383,0.5459269269926742,1.4446469242703448,-0.6934090169140292
-0.7919361898164788,0.8210496370874448,0.3525472975284147,-0.8055364370300878,-1.4855050766534719,-0.2283339576464278,-1.4257622137703443,-0.044698476834249795
0.692034570970749,-1.5989371774035939,2.0921122939499113,0.5542208558647248,-0.08980933865000468,-1.259787085380124,-0.665396075118378,-0.41147463407928764
0.14112020288233332,-2.078641612589193,0.525924258234115,0.222010033945915,-0.22274040654221006,-0.30443438251924254,0.06085756972710898,0.3983688318934822
0.10058020012788567,-0.04935960770941161,-0.005589038385296816,-0.7444114046894048,0.44838247918353485,-4.327876614443694e-05,1.2009477283852694,1.9101143325012584
-2.83524876505395,0.9430631218739348,-1.318586585771568,-0.7117359792584224,-0.5078562430325771,0.22614899129798127,-0.4076181755759727,0.09615423579980716
0.9002162867658896,-0.24603576693407325,-1.2553277373942178,-0.2061332495775007,-0.16736604720384035,-1.2839910739664713,0.32787871171637734,-1.0036253479369743
0.503890228534414,-0.29349823068270137,0.31033203356568856,-0.6044803037775498,-0.4587513769362862,-0.5605913857784346,-1.2476360340033663,-0.2768495674206234
-0.03821914974963558,-0.26470807060664514,0.1544326033275154,-1.5694375178990243,0.3516177077096138,1.1853122701067114,-0.13286611778236845,1.55439435883406
-0.5599198799940668,-0.24802533571362853,0.4549730766074982,-0.5131600382456525,-0.2244223869342584,-1.0951126098190267,-1.1024224851841802,0.7824469229503775
-0.7065538958088323,-1.3007993313330737,-1.2512123530461134,-0.9090767018037339,-1.1671736005641633,0.45172730591415844,-0.40264933846686995,0.14987058395650926
-1.314290766345638,0.669350586540287,-0.3207468152673494,0.3331501687717277,0.6437226868811415,-1.9298312491620155,0.26447667034496103,-0.1373594761797038
2.1516947225341543,-0.21633401931038657,-0.5764861873646493,0.5441276093054538,0.5270810091601951,0.5079505494643606,-0.033303062608107656,0.5501886490748211
0.05946227877186966,-0.679992151898194,-0.07455858939993838,1.0789886769318944,-0.7258067790439916,-1.6247897237534195,1.6228533179478,1.1195243837982685
1.3041942223943548,2.1684971890029647,-0.7656014002348883,-0.5448167415577109,-1.6893242304768075,0.6097785204659797,0.9925999961027724,-0.02622467652805252
1.8227854702488844,0.3565054295163934,0.7273529770005275,-0.4367174032786239,-0.8658698396143842,1.0218032380117024,-1.797777042101231,0.20861359942824667
-0.12524968452663862,-0.6981077071790753,-1.2751287708618657,0.5597836011815962,-0.37199310892997345,0.7206132726871475,-0.8435320910021475,-1.5078903790824536
1.0584570719502837,-1.54211308344945,0.17240277989076594,0.4176218994329312,-0.6341436595753969,0.4229681995848496,0.577934939171262,-1.360819782990651
1.1542478197020547,0.6547741944447664,1.017128502309666,-0.46209986424765437,-0.0016643305898306488,-0.5819147581098272,-0.1945102214791963,0.6984765420087414
2.560828714929948,-1.2544124760787163,1.015754372542163,0.35745360573621976,0.5571117357109376,0.6458354463441254,-1.0506703766483,0.7706652281225967
0.3484806540961725,-1.1104075089818142,0.024698144627545323,-1.3138292188973746,1.7054513208075328,-0.5289816360223218,-0.02789293966803154,0.47009543770823453
0.11325393164295286,0.9389906093474634,0.3685291850247262,-0.2450301935913017,1.012333242793145,0.8035366004753317,-1.1121201699560972,-0.0627127679521889
0.04985227210115385,1.1620279726077272,-0.11705116226884543,-0.038497172551207486,-3.378460619518558,0.3619596577923077,-1.9947351745707778,0.06995732082770796
1.6257284307972142,1.3587044058109548,0.6937391988196071,-0.2620329702186357,-0.5013373612771862,-0.04659968517164957,0.8109818983661,0.5631531820831556
1.091051582569351,1.1453163063067584,1.4818333584274885,-0.37052479150372547,-2.4157355025526828,0.12399233514547445,2.324139349520196,-0.07992290759888371
-1.2502298550191597,0.23665522473355954,-0.6926543334514695,-0.8016176807098819,-1.6621454781865719,0.7166713064146844,-0.5444232539708993,-0.6673791683808071
0.462578560758104,-0.9518058421272593,0.5896080953281355,0.2917216223087502,-1.5166282613973787,0.6928959257912082,-1.131616123904879,0.8007924551361199
1.2618129985357331,-0.7841376593802641,0.5644413466028851,-1.366502618441853,-1.2747360190318187,-0.29366075712171136,-1.35114553128621,0.6785073243513773
0.6415750835376108,0.7641313915429654,0.9530573324898615,-0.5567968800197537,2.057390841671812,1.2673408508897608,1.4722168751840445,-0.2598797284097998
1.003286371824025,1.7138484554144917,0.4572284784739479,-0.7153385493802092,-0.6714914868263322,0.05304120937634258,1.5830254970311086,1.1178050813146252
0.3861118049169238,-0.6013788651149075,-0.10100697499932566,-1.352923297761793,-1.4673718451456295,-0.6324206259590047,1.2080249420618583,-1.887949301439309
0.09103894849754889,0.7166896364778483,-0.090395582585957,-0.9549589508494194,0.7289106096412805,-0.057831123793604,0.4220174480662672,0.48614973560066427
-0.2858993543311873,0.9065332354797645,-0.20938681623043914,-0.1993130445855212,-0.6831287659137659,1.042252699301249,0.8313195552046013,0.8849414456569505
-0.11520836417197199,0.5007961543444882,0.007039412051927921,-0.8183038901366966,-1.7479251796632762,-0.9214461838527014,0.7362797622483572,0.17251823152549664
-1.767727377391407,0.4537412070365892,-1.2385822479270638,0.7812098633199677,0.6104208732577193,2.332008879600749,0.6780420501267438,0.08552512615156584
-2.745184926774821,-0.2686474454583902,1.1259103143423808,0.553647194204138,2.304730857066843,-0.3337640291171798,0.04488833563370014,0.568450116036757
0.9848062381790923,-0.44070963202893854,0.22338857849901037,0.7233397870557412,1.3707953436350946,0.7150425401122009,-0.45883329438183584,2.2384868781242697
0.22330028699286114,-0.19691345761911866,0.44081694588630044,-0.6717250241421621,0.12125676832768607,-0.8493513114523321,-0.9487788707685781,-0.3486734150474151
-0.23080390969162384,0.17534772732833773,-1.1120270389138631,-0.7684901209459227,0.39876939939515443,0.24197988082743688,0.18832953411333525,0.3522443525510909
-0.052748010646096626,0.2325601564062946,-0.1721808855350347,-0.395050210186395,0.47253924044469264,0.29355894071453614,0.2826264964761869,2.271020793865174
0.3724481425375138,1.5348733137663702,-0.36751537041968496,0.5195005298250669,-0.4909967358121642,-0.49983224482470456,-0.52349544028669,1.4482308777212767
-0.2968491841826499,0.6808656705407821,-0.12559619999853958,-1.720797763022602,1.329148757988971,-0.45535807510108506,-0.02668972251725128,1.895881035377999
1.2138012571206822,0.6788073956976618,-0.5929812394592274,-0.4640334379906804,-0.6987033709057386,0.0908250830349419,-0.2560225562981534,0.8926903011715461
0.5306393964061615,1.050458869338516,-0.5606378950124541,0.9183782087520203,1.9407820268197407,-0.4204925176764572,0.7422226968210033,-0.7864061588816802
-1.7666061662687487,-0.34111930195850876,-1.1516909022904827,0.3233302333922555,-0.0688412704289118,-0.21456898661332316,0.7684941341737079,1.3564803548417121
0.38873853089435295,-2.364529896507351,0.26618064271001696,1.0360034103765898,0.10672230676674777,-0.20753152250704437,-0.4100413651218376,-0.04171523347409295
-0.026638223103031138,0.9706672724142635,-0.5094431533748905,0.16258602114357534,0.6139955934258087,2.113853285163626,1.4991515655750602,0.923528966375127
0.029712798621292433,-0.5470167737763827,-1.9480603711536226,-1.6496191964329887,0.32966779800501705,-0.681264767296944,0.23897597219536526,-1.5843197414544237
-0.9094216053101685,0.044807231338082544,-0.7817599785979101,-0.19938613392226123,-1.73270322425562,-0.09207516968074825,-0.5338912467656632,1.3687132700912874
-0.925064520937825,-0.9068124714883107,0.8022123181154885,0.3814056905846631,-0.3981687861603111,-1.4741106305851193,0.4795990914474512,-0.5503566638220277
-1.5104387783720308,1.6509012451392981,-0.3145965121239807,1.312677432380128,0.789143219795192,-0.4029938823660408,1.1236151047411302,-0.6565435491767869
1.2526317591205287,0.6103651301867251,1.4308132831567588,0.5635201899836288,-0.7105189160189529,-1.5279798738739752,2.1091365282447843,0.9806076399634399
-1.1606100716330239,0.04294939542397639,0.05206172581078179,0.5667774720150843,1.6231015259207018,-0.03958647786754595,-0.028252873722526384,-2.7037551326907976
0.13405406490106714,1.3327873546772033,-0.7690935170499236,1.6177156932182228,0.7944544863397272,-0.4324855273191517,-0.46508789710652776,0.06650452981429812
-0.5489785172500995,0.7184021000152685,-1.4437650344367352,-0.20042592466666692,0.6170950145295071,-0.44218984947425743,0.51258959349097,2.1327397148224803
-0.15743642139872646,0.01645554156852619,-0.09949364567985776,-0.4275793371526503,-1.0039966238448874,0.6694856868895528,2.2212048424750495,-0.15024348276671157
-1.1066117868437686,-0.5306359221128369,0.7259294603341406,1.5062779297518343,0.3426592105773397,-0.5762046489789271,0.526992217240132,0.6927077465011945
-0.18468958172287375,-0.1928922289650854,0.38997503515002835,1.5868082322360477,0.6345783909356654,-0.2126434874985823,-0.4133975009617303,0.7472173835882213
-0.2872586274758359,0.5470580795805721,-0.8593890735399191,0.6329138880538732,-0.8019372892568176,0.7864065097624854,0.8230350952576542,2.8118704523980846
0.3092744652491698,0.3225287591764534,-0.620238092049408,0.4627909568655822,-0.170478232323701,0.048185832510969466,-0.5923843632592444,-1.308846645446309
-0.3183287920384929,-0.6736397228925314,0.022312816600309267,-0.16253419737566893,1.038072309920743,-0.7243302684417228,-0.4780042714045621,0.44469573297317677
-1.0513956432260028,0.33643058578516455,-0.0039657709409391135,0.4385278444926396,-0.19691611305037052,1.9706503274420957,1.4144542168305823,-0.3787133118955777
0.3375764506240088,0.24786971252258325,0.9787151827858903,0.5768190457739092,-0.6641847407916481,-0.766443521692018,0.15359862695332907,0.36077825855739115
-0.9336221225083774,1.4459706340901166,-0.26707890328175,1.0110878855065628,-0.27834678288384623,0.6145986610381996,-1.5241328864414896,0.6023338189056153
-1.4377751138355108,0.23216356637450472,0.04375062681442391,0.40507152938907837,1.0525786416563128,0.07294665848575986,2.4082726940271315,-0.4816734403855832
-1.3244139584320076,-1.7338551692144124,-0.3078322702837961,0.1771901132134516,-1.3251010159858614,1.5630878972369138,-0.0176116975400814,0.4074306718544972
0.722494614670733,0.5303140775415383,0.814931798345374,0.26925153399593305,1.9313824449503696,0.3189767531009826,1.1484337010197723,-0.9862753197024535
0.4233941355264834,0.965368916475374,0.36661545558505904,0.6621488254760253,-0.20969234408451307,-0.14450660684765868,-1.1567145172235744,-0.21346420284913287
-0.512494008595963,-0.12325809852672999,0.0885439084291625,-0.7101884294796135,0.29125673119562634,-0.8186659956269086,1.2562033708420834,0.2804037001258491
0.7968577761481486,2.1387332518989464,-0.6820726081229713,0.4960184080235077,1.0342280230983203,-0.058497234022173134,-1.4216040947513657,1.2710219620580099
0.601428651014628,0.2554637146013106,-0.09679352404228665,1.9920737261942014,-2.0276889532541302,-0.7975481667015375,-0.45122752613780576,-0.820978391465908
0.4868202719716872,0.35691239094447835,1.3056190238806311,-1.5603014401184578,2.404883268937043,-1.5789088056822962,0.06224635038077564,0.9622454782699481
-0.3530524105829759,-0.28238822555580706,0.054578982005489184,-0.2824285887939991,-0.7152998953120708,0.5629499944077114,0.07436959517542582,1.7139907740180802
-0.3076479370853326,-2.768664632305977,-0.7633620189730391,0.15209703785088766,0.7050865594270759,0.4440713893401634,-1.3901387639961251,-1.8943127618506306
-0.9471462127528076,-0.5757042849321962,0.21620447275663388,0.08174021667882408,0.27749435034244774,-0.7376292692128009,0.5286791219078507,-1.3062882778633753
-0.035579648848014366,-1.7932195812724785,-0.42165824144583375,-0.12937787229699357,1.4037061132904047,0.14915718111850026,-0.4301392108698193,0.1452298485093726
0.9625346874699275,-0.4010317164723598,-1.5694138530405528,-2.3740756340975206,0.7702014312072784,1.845451610105433,-0.3613637274065096,-0.6524561435598552
0.6129563668097278,-1.7134017333826963,-1.2249476345229753,-0.253371700125398,0.6869081923912151,0.2657934922632571,-1.4432702247090208,-0.6225862482312784
-0.6725858534916948,-0.8802513679554704,0.458359525986341,-0.2036601786925607,2.0037936748720035,1.6638495313200417,-1.534383205936651,-1.2588187234365469
0.6007923974931497,1.5957836643048644,-0.7570185005480976,0.9306921167134823,-0.18854132590690573,1.0822603802047182,0.2766344819903831,0.009914500231670642
-0.8091772114351166,1.1142658314420382,-0.4738566631659227,0.4596291964627588,-1.435941607675548,0.852651586714755,1.5783009118348075,0.7804996631745519
0.25761077030713797,-0.5982787164654966,0.6508959511215329,-1.2128248865418205,-0.9686844326987134,-0.7741748772555727,-1.0693761340254782,-0.020163348279679864
0.009496794260754676,-1.1200289816205642,-1.1822728927095993,-0.20347155624035296,1.775104279166281,0.2674450484907758,0.7678310873581751,-0.3287168873466782
0.535545461798702,-1.2081393805562441,-0.03401843034042289,2.4206852996807102,0.6168196392628765,-0.16428992668694653,-0.5125627521179364,-0.9605764900772438
0.2432438958871392,-0.30864074852790235,-1.2408206476309571,-0.1738118240592858,0.0954041393672562,0.6424754500085381,0.0327802425585682,-0.0532485546475259
-1.2332877405970781,0.8830832180382874,-0.5775673680511526,0.1850841918214524,0.2269700093429042,1.2425212098397165,-2.4149370651719138,-0.015253771280005284
-0.4929738266711778,-0.2474772604028021,0.08622163395989636,-2.257205850305251,0.04669661575407894,2.242455424360678,0.02632501437025826,-1.5849158471666371
0.6378416751183538,-0.21827796432812677,-1.663903125381534,-0.11397145119011853,0.38078211494041053,-1.9838360692534642,-1.0765532362035588,-0.8847628392819844
1.092698289867275,-0.4432591276201338,0.1541647014665849,-0.8131170189051392,-0.09586305226672429,-0.8534806312806114,-0.5468309878391084,-1.5758854356142071
0.4548688775508289,-0.8908427179857016,0.38582767642090465,0.3284469359697964,-0.039058786016149455,0.8875014665557526,-0.1874718964109283,0.13699658564248426
-0.6767621273740266,-0.670809848941662,0.12439820150650094,1.913781776225027,0.6976110953258469,-0.18363284014733053,-1.3912445765732344,-0.3951212317683901
-1.2603284782076412,0.5857473259400866,1.2939702244209907,1.153062668463746,-0.20405734476690698,-0.423302293406011,-1.1236462195765065,-0.1210907134381904
1.0704953484329511,0.7312956623389655,0.767948607333731,-0.9815534403201964,0.234454280624389,1.160097792780349,0.22757272950874965,-2.2470079823899933
-0.8171918622296294,-0.07768306191550849,-1.1233864569257117,-0.6840519377820875,-0.10462112588027472,0.2960088937995534,-0.2331552367056322,0.19881300855198708
-1.5175328751388921,2.394470935366483,1.5794577288749567,0.6001027155445262,1.0160417968540874,0.5824403591759111,1.3415999036080997,-0.993907723513231
-1.0869728467553463,0.7413092204916476,0.5088907838126069,-0.47581133720164764,-0.8487954419834777,-1.6349197184745674,0.024083526061891004,-0.4097279155091127
-1.1754928115828096,-0.31075966667570604,1.7425929269489855,0.6347851269456452,1.1106491384194865,-1.4393055146606393,0.09507823209016139,2.249991349427871
0.48317787965790976,-0.12000697721300559,-0.726338797557715,0.32450138677600415,0.33255723310994795,1.388704791155193,-0.6082488705535836,-0.8038566136686648
0.5479816446130705,1.511957592989986,1.2667412596140004,0.5781351859691338,-0.16375740252549276,1.9375741272222093,0.16764486823248279,-0.09777717695768863
-0.532933469357876,0.9727182667699686,1.0134062296164548,0.5703482573163685,-1.5025020110966505,-0.3778310661464977,2.0446434739027435,0.0042488860541102826
-0.7370303286729644,2.2127951203395937,0.45879215262710793,-0.3028160136825,0.6577305712544353,0.8426479501050599,-0.7068058815955464,0.29844948575608377
-0.07008536003385879,-0.6843114233214618,-0.13763841823808518,-0.9471062728727063,0.4792861118516927,-0.6164827703862638,-0.7133259083851374,-0.18478260012092534
-0.8772785860645714,1.625537096965809,1.2491756550286828,-0.6687025430350504,0.9910962174391709,-0.8855850952395365,1.9772365507884984,0.4588187956481475
-0.6001819306939207,-0.39144221993668676,1.439380428255434,-0.4874000711121799,0.8824711239705978,-0.5503581358914069,0.5735324526351724,-1.7124732478909759
-2.6451539519383354,1.0338901642424692,0.03017922690490778,-0.582280406991967,0.7880111055895022,1.5042286535552154,-0.8849971719549615,-1.710429546992386
-0.8626602754743175,0.7544280176939998,-1.1204454758995273,-0.9864666782457109,2.3862602114078637,0.6307000507103072,-0.17789368053797014,0.11528207403423987
0.6100530440386055,0.3869598360054398,-0.4599832292186378,-0.6454844622028972,0.3959835195943692,-1.3193497585528133,1.414774050719028,-1.0101087337786792
-1.9173683498781184,-0.4679549462792809,-0.16251985533916188,-0.556040124223852,-0.8776597755522012,1.25968306627388,-0.8838734689167237,-0.44147337947978094
1.470385522738253,-0.11667836935240651,-1.0987300403692022,-1.5160014337994305,0.3818859707406298,-0.08334911309211489,1.4783171623767986,1.02067768576657
1.4643405347486371,2.6580370108653493,-1.0831002890265222,-0.19924622457299995,0.09440544937704234,-0.7324145460239101,1.725019929907827,1.3356483550869689
-0.15018613592013166,1.0611736763634454,1.2548787410410618,-0.8148763086099328,2.1417035060627625,-1.1733436150482586,0.023426748073178374,-0.7757421559427169
-0.4236358338763529,-0.6522885149584714,1.0013377598776776,-0.9949885907223215,-1.077136072421171,2.200968507244481,0.08746050159624973,-0.2546730394097407
0.15572041293962957,0.42098598037108886,-0.9065834546114493,0.926669764356237,0.7783634594907308,0.9984007627981449,-0.5602653921527191,1.1696628786668042
-0.6400795495816197,0.3725691284343405,-0.564789755912174,0.5449924756639335,-1.6387932416406399,0.4390828519460944,0.6347044450846462,-1.5343859653411356
-0.4245628444944424,0.9556734577264708,1.6907594426378265,0.5883459111607118,0.6942925596486752,0.16286985810757842,1.8825399569351413,0.4177531475523678
-0.17222466570191902,0.17423430457940076,-1.0689962465992693,0.5105840882051549,0.8180040817206148,0.060463717764062105,-0.3989748175625187,1.1671656971505913
1.0728338073374968,0.6965973844190961,-0.14621969996925194,0.4249469456339025,-0.3111803108496059,-0.43232345251617166,-0.5453643977483279,1.1227564986546867
0.36859538166530514,-0.6958425404030941,0.21893287941102402,0.7232235872726555,0.8071024501502791,-2.211469329041783,-0.19825462517738812,2.2641418482063167
-2.0097120956283585,0.8437535180394824,0.6509088465693832,-0.659455630455382,0.08870592253507992,1.6282708361927383,0.36017997965551524,0.9517171890591306
-0.15154057776228153,0.8904775172027923,-0.17922159076385966,0.07543802769941763,1.6826305050561394,-0.5599468619002419,1.1800256565361824,0.06226999157609703
0.905499407404433,-1.5008237018398478,-0.19411850683802476,-0.9071481060329762,-0.546638324513969,-1.1883998908402347,1.0747406638303851,1.1078290023802158
-0.3617796204719471,-0.36002630373892375,1.7089729053456475,-1.0196991553223984,0.6815898402400927,-1.262119462776027,0.14842578757165842,0.02714396299492095
0.19117931497632554,0.24480853976153405,0.8953886462823452,-0.004178095720388431,-0.07237879912572792,-0.13406455442186033,-0.6073664584574495,1.2399297362593498
0.6114902487452739,0.12384779630918342,1.306770898521557,0.9224816620007761,1.048772046113048,0.07551187820140941,0.8585178004443581,0.494338392680975
-1.5695780154462928,0.6492240677714073,1.2292003785738759,-1.3396565391394573,0.044610988011511324,0.26383131415297695,-0.889167204539409,1.2951156579757046
-1.1688483528563756,-1.0433441910952141,-0.1715499556641419,-0.7608231131706691,0.3555258745598151,0.4814800351760828,-0.4187931580050151,-0.9365408371536624
-0.10705343839421888,-1.2778119925349283,0.26065229219401503,0.7366220342872256,-0.22672163748527024,-1.1574826140121444,-1.3349831485110826,0.38552341848757943
0.5428107416332091,1.6818650656492657,1.3995663628767514,-1.0909561352833512,-2.159469573934129,0.4889217704359704,-0.8363683939561319,1.3255639177723626
2.1927253800115105,-0.2135298873863424,-0.8197035953073732,0.8039730515660132,-1.5570014610706335,-0.6312436175503352,-0.17908905373592496,2.1289395119469683
-1.9839314895058147,0.5476999591412118,-0.27986939696723073,0.3230830683311301,0.8085562981343288,0.9705053644797711,-1.2987649404618442,-0.18864852383647243
0.013210537950937141,-0.04087750792174271,1.6508235924227408,2.160346131732791,0.0812183896313441,0.10416784775140843,0.46352831660006716,-0.01455042183236962
0.3409429998003506,0.10969171905182881,0.6367395995089522,1.4404066397095705,0.5879349513722455,-0.6233799555205207,-1.4334919843658716,0.13646373638303802
0.5859721752246059,0.8289408701588404,-0.9544091927987913,1.2673365402207115,-0.1271034365985231,0.8157306305575247,-0.2989734841368487,0.25822301195845354
-0.008541829978808315,0.34266314406553666,1.4651741107257643,-0.14877686379402033,0.3567081882890388,-1.9586297381604105,-1.0736904221946795,-0.5475025809109828
1.3505749572924863,-1.0337978281910505,0.15433647790405983,-0.5205249953867277,0.9572349079184886,1.828556986014479,0.7920106304184829,-1.388938949291392
0.09417398187094143,0.053946712556854334,0.9539439034516606,0.36419823281166896,-1.0695952235497737,-0.09734401560856895,-0.2447615484054113,-2.2839696506059712
1.2711973380075199,0.06401731339721801,-0.45333837782844477,-0.3955167151315153,-0.734112741288967,0.9045818220149147,-0.20689967369803952,1.5776521422829253
1.8816911806241725,-0.9775562906537969,1.9905731365741313,-0.023274008030121827,0.09580759277336148,-0.22021227266248172,-0.3783093493648813,-0.1321356578420739
-0.773033058483275,-0.37474656516802574,1.3567844086859846,-0.5853483947721616,-0.6630626065541971,0.5615056935203163,-0.5885720693202493,0.44746718002536906
-0.3137764913208454,0.26726142325825275,2.1780756806210375,0.560183483478332,0.3523223651395266,0.02882780757312982,-0.36512659950312265,-0.4757582063780958
-1.3587158463954996,0.048178767476163516,-0.7504558818154796,-0.7252683626411686,-1.5211618051610922,-0.5136602592778946,1.1579956231028317,0.3010171487913479
-0.17831670373566366,-1.9281859928423875,0.41453495667684903,0.7304162174581756,-0.9162247084787134,-1.2923865638372405,0.7601158214207627,-0.5728561309778675
0.7795663259676758,2.394889004399158,-0.11284520641224546,0.5155781673611508,-1.746543292536638,-0.9259392206976083,-1.6121910134002115,1.2879971929676306
-0.14700655321777145,-0.35757084138281897,1.5397610056278517,1.1777318120621165,0.03951677313987785,0.8056099964020731,0.2040086279401086,-1.3433633508880216
-1.6793542157126473,0.799374952569107,0.48136885471571805,0.4577483881390923,-0.4987192376101179,-0.5580406254943278,-0.9698743573304167,0.7511571663408505
1.0743634033414944,0.21717976704810982,0.04886230625898445,0.11294799350127743,-0.8328123691790668,0.22960087266833384,-0.1250975277088138,1.9742020317948132
1.1798024142373436,0.7994101679881388,2.4648604977154593,1.0087507914408924,1.009772523749744,0.8308214073053448,0.3428589172725586,-1.2304881755694548
0.37477491716791145,2.2147572720361546,0.4183007135472488,0.4875835128289315,-1.7060259256903754,-0.865215336531667,-0.6317546359629526,1.1544866910260603
-0.6758882633690265,-0.955677723986613,-0.1641741388864967,0.030188643377734633,1.1325458138010884,0.8397563678652746,-1.321985535823431,1.7096359535401433
-0.6964049334449861,0.21488662174931075,-0.11577066986846464,3.264278512435318,1.6225067579693877,-0.43837419041515474,-1.8377904634202864,0.02009701971376404
1.0476602312624523,0.4138744963751974,-0.09815968630641643,-1.1039837845329579,-2.6759655256133823,1.1464985666083458,-1.1858040804972467,1.4281853249556409
0.556386135102169,0.27781804778558117,0.4816370534772287,1.2603284299032902,0.4823633323717685,0.6559231775328149,-0.5190349801382721,-0.8381479956985293
-0.469637622932204,-0.6271208280875862,-0.2999701198304534,2.4527795561659413,1.334362134910617,1.5431013711975774,0.5111066622379028,0.28670229123611574
-0.2618644211404732,-0.41676148755755443,0.2722569822860617,0.39499656168168734,-0.27012313401801846,-0.7981791543939715,0.1044326328908026,1.226167950590384
-0.17221504497949078,0.1550199596842516,0.9720379032061666,1.0340058823037845,-0.27565576880109993,0.2932568345413569,0.20005287559695495,-0.3888570012954234
0.29017351576101946,1.6356103543158436,0.4951693494223327,-1.6492200319059627,1.2309605798869252,0.514084181696617,-0.9822991808396,-1.961843493739434
0.21880060859508832,-0.24159923416631782,-0.2639739683921367,-0.46902700458891466,-0.7970798915670002,0.96567453004384,1.0251583012158934,-1.09846979374089
1.1509535948971448,-0.6649483440516534,-0.08947300954292015,1.270060622877102,2.355077262768996,-0.2882940312492146,-0.1061808580272352,0.7140721734707048
-0.11206654298099909,0.5445045501370225,1.8641748492057213,0.1630692946642064,-0.7477936929858199,-1.763896388812371,-0.13078805189634127,0.9046712413338467
-0.06656161153254732,0.4283750606230009,-0.11672770934634204,1.1514245186816985,-0.4694475881784991,0.4888800815452742,0.13179234387840455,-0.09365713204370411
0.7900824645096788,1.0852619301023896,0.897970746541115,0.45362777691073597,1.1913227328257738,-1.650663218808093,-0.9041271088630412,-0.9114022738605235
0.0667613446464405,0.5270567522209516,-0.11280734724100268,-0.838007857781312,1.9060249568489158,-0.06447582426941671,1.2532434412506144,-0.9186420812553391
0.19572079345948026,0.48428039183713395,0.3166098564654636,-0.39519006453222627,0.5310265202072842,-1.3893059034722732,-0.7817573898008509,1.6538651447589952
-0.8524583801677538,2.237794263290493,0.4287591363668568,-0.7968415507443395,0.21118304119569126,-0.885089595339982,-0.38123199570286515,0.8907460692310009
-0.3017754884982393,-1.163799243839444,-0.9873996226438203,-0.3841594625638609,-2.647653080898468,-0.6380429904286038,0.8891821454961082,-0.7526022695387529
-1.3272945789824002,-0.7373637428436846,0.844461817690735,-0.9990988819752431,-0.6909577512284257,-0.8130168714108316,1.5847386691039325,-0.3207119936252669
2.0941987409410725,0.6998806061761221,-0.9156898295527649,-1.6737878549457186,-1.3423928173750213,2.7455860401657395,0.08799653699202849,0.5920633317528816
1.2808745010528677,0.6933681490670455,-0.24744179579025083,-0.7082680958829487,-0.592519929746429,-0.5135263264682228,0.015457357119726638,0.326197130066805
0.12424211838341521,-0.27965852742857217,-0.7894991405484665,-1.4165842233986343,-0.3508964149701816,0.525328323523198,-1.7394244892812256,-1.2908384520080043
0.46510752609066913,0.7715966147801951,-0.6060341523351492,1.2919729863774922,-0.3153593736898446,-1.059991563776903,-1.360137544935424,-0.7675290659324147
-1.1278605072051158,2.5331762789903878,-0.4956488483941736,0.230953946109732,0.655187899335894,0.3683363322102627,-2.492555696983859,-0.9596435589108606
-0.10022857563536292,1.498656645999503,0.1268639685979387,-0.19036029152017292,0.4396309356595609,-1.2163521704910554,-0.22216443051056903,0.17444547155594592
-0.5581668968655474,-0.2515235974969987,1.0571672492302384,-0.7550120651679227,0.016792749817681103,-0.5449786936443988,-0.40758115470798134,-0.21047416655580076
-0.3527024336665712,-1.5443995085980535,0.7954471922291205,-0.4213858388038578,1.036975155194431,0.09168703231630998,0.6846708685076882,1.460313273498112
1.1417269131545635,-0.6783452233895451,-0.13153574522799258,-0.07027439009371372,0.8862219707757694,0.9639584269470108,-1.3433313330357517,0.564624049212889
-0.17552607444941215,0.6132073747911553,-2.00008043742407,0.2448136317112267,0.547783044588766,0.47348989278017045,-1.2081192668134326,0.5385890198809368
0.9207741369030713,1.2171210901862384,-0.025770781612623455,0.4285632373698484,0.26751047804963674,0.5041050734335354,-0.3218348931878592,0.19737299163127106
0.22533360170191982,1.0791307133827737,0.13709555136977267,-0.856739226954771,0.6647918484042188,1.1477030770932317,-1.041690867355055,0.9766518210146108
1.2473744591064282,-2.1477091087396194,0.6971463750000028,-0.1197340968748802,1.1204482905901214,-0.29266987936794087,-2.2521092058087713,-0.0018765860311795411
-0.24785159771640916,1.1052844861666409,-0.30974700470074223,-1.8347723622643857,-0.1435929129557567,1.1912969053215998,0.6707498877573912,-0.5138995858397383
0.9697323844686476,-0.08353400625784721,1.4082175860399186,-2.0347687539242885,-0.02012999348150518,-1.566368742745164,0.21147209638722517,-0.5451861207262406
-0.10551363656976516,-1.1669586364549074,-0.30344739055219777,-0.034898844718745804,0.30248888351720776,-0.3636728024926538,-1.7522962613182673,0.7883379448635898
0.23129382571811988,0.08706246609053725,1.077230811646387,-0.5617212753057107,-1.4116683542375974,-0.2027539704356471,0.4100827170384592,-0.4411219737014903
2.2151360149380945,0.6450711005408294,-0.17201560556899867,-0.1034564984635782,0.04904542905027875,-2.0352705707529974,1.7620813804270956,0.0050350975713608585
-1.0763837545494421,-1.7130910016882548,-0.19009155789939544,0.5335580249134371,0.18959632848189859,-1.0191383500562508,-0.3363964016411702,-0.7834872647316369
0.18533669148296866,-0.2656268704317325,0.9145751368267927,1.0388275797670476,0.07909786966049519,1.3012853616932236,0.09214893374680401,-0.5505076585896699
0.0836058846353594,0.5273136975052,-0.7255180823840295,2.7741556032050303,0.25951143055308123,-0.1047602900661004,-0.7334349422450391,0.0239666630385306
0.28373943308094957,1.5682007686086108,-0.8285958637577131,-0.6878620899837048,0.414523170777241,-0.9781062795262208,0.0284343292578462,-0.1668117244216945
-0.6613445379514853,-0.8630529125224711,1.6127780518593096,-0.28976019319220664,-1.7434414889351233,0.09804311823861753,-0.8262285142411309,0.8242973594393912
-0.32018091973210333,0.048192749862866084,2.1538912049191823,0.19353727671708426,-0.549594027862259,-1.34332517487054,0.18384658606695828,0.3008527174440056
0.7752271401438321,-1.1015845901270793,-0.6466253837428372,-0.6143480815356134,-0.19204148285566242,0.8006103937561887,-1.9940050086032837,-0.004883532870488184
-0.24281646529773437,-0.43425953990035054,-1.1206825873538577,0.7112307558484376,-0.20555005353233372,-1.8240648343823476,0.46702001104905594,-0.477727963686126
-0.45460317592524685,2.1340476848661663,1.385801956994417,0.7629664697418816,1.2664826250242427,0.8443988860358685,0.5163533556543258,1.9005414877962374
-0.7683461866414324,-1.2847545100828544,-1.190684456762169,-0.1418721593318847,1.5947388570894556,1.2455438826232303,2.4825011360544442,1.2948939542212714
-1.0442576509017576,0.49178035280076227,-0.13414782496812064,-0.34275268003684906,-0.2967019256752272,-0.2593993293970846,1.2870373200118785,0.82413213066761
0.7447601665453969,-1.9233903677557385,1.2053812687740917,-0.34541403684899014,-0.6883360939709104,0.14953035114063765,1.6000358564721822,-1.066421523017649
-0.33651323701155983,-0.7589555101040909,0.05847879600149091,-0.934954881580477,-0.6607252878613864,-2.0031796839079585,-0.07963650022573539,-1.2621185640071557
1.5840383416705257,0.3630516110755995,0.17411002222311642,-1.1088275195016024,2.102006891839917,0.11826345472094434,-0.24518307884568197,-0.8446560820022894
0.29484881395846996,-2.2789299798218274,0.19689991228232812,0.7176854649275891,0.24468599819479064,-1.667889858487933,-0.26485073169951495,-0.8316886002982151
2.3188461872827655,-1.247961539638164,-0.7959534545488237,0.5881151178873141,-2.114628455899207,1.4373937577647744,1.4630628278011006,-0.2282621514630106
-0.7888114880721027,-0.16883889930812476,1.0224263396945505,-0.8659698657043563,-0.6401804175429322,-0.6735301638421768,-0.3363816976061869,-0.26587892670502267
-0.17849536657726547,0.24873949660527936,-0.22743903697809284,0.4581948000094073,0.46217837803080947,-0.7256027329192913,-1.0894847259441895,0.24255138993947525
-0.7835713802230332,0.567003483538082,0.48339252968446067,0.8600259604691768,-1.0029065789340201,0.48815377224004003,0.6645756360267437,-0.5429055032563496
-0.36643870363707104,-0.7406157762368888,0.557874659030239,0.29880277504937003,0.2877118916235435,1.4249850872773697,0.5234101288267403,0.42869212056118844
1.3831645584504215,2.909989055373005,-0.8235988951933613,-0.4784171075862198,0.07738443484337845,-0.5121636453785683,0.06122582581828826,0.8766896686773651
-0.7919440165511924,2.057589163988422,0.6186548898113025,0.7224226930484368,-1.0291416145583312,0.06423921236325018,1.593126271136557,0.39279594143199625
0.17765754761857516,-0.3555307246350568,0.194711128443737,0.3363470677635698,0.5734295378751235,-1.356801474928232,1.5963197553280017,1.4927833944098376
1.8177546004191931,0.3744734274089296,-0.1993640166220902,1.8593723495237302,-0.5169706748655729,0.637987058801184,-0.8239922543120866,0.775250698883987
0.38019257373793774,0.04499989110770572,1.347893595946532,-0.34859626411695394,0.2989330398953758,2.409100873569737,0.9935830608740166,1.615323507557992
-0.16468126135806854,-2.35149975688508,1.1019974769822367,0.03566233459196981,0.8957053422636055,-0.3336818251925759,-0.05859294530344411,-0.27366916607744035
-0.698099195206468,0.7256708267604861,0.14792638969247346,2.784106718810275,0.0897862424310487,-0.3719375874838715,-0.6987954843218785,0.006264462147439542
0.5755368818933637,0.7461594773551214,1.205443018847527,0.5469465780423219,-2.0298089555765895,1.3616362662122552,-1.2384103375054547,0.6234050119198805
-0.3907309330817369,-1.095987376137005,0.7341059884785426,1.5934970898017056,0.5528132262001344,0.5523210958121242,0.6640450787429636,1.0202836584177823
-0.6528086531969047,0.29642689641585196,-0.03316323050013418,-1.014421495821584,0.401929133816405,-1.3373589036430804,1.5076086517446055,-0.5455602518188108
0.5972377490716799,-0.6225207729347776,-0.8587482720878573,-0.24121930257971222,-0.7364760583296801,-1.7042167850131433,-2.4474308966534934,-0.037643037844112374
-0.1815681084540008,-0.08837154572525083,-1.2654379649149308,1.4569288964367795,-1.0353485775264095,-0.3103108851137705,0.5462706720948098,-0.8323163029367248
0.871351562107933,0.39139916190057145,-1.4631750409275306,-2.2372717089222163,-1.6178640779112068,0.10743661163772812,1.1952052137950822,-1.380603282183108
-0.5533569447113901,-0.06281253509142289,1.8095828730290975,-0.7426467016557035,1.2389436551307675,-2.125747843161918,0.23383995551692352,-0.08913712160983286
-0.30255914886742125,-0.45486593297033856,-0.3004975439498792,2.14092991125521,-0.6454261171774844,-0.5603887088700817,1.2286909331999074,0.9630472746047087
-0.7060184977283195,0.16482794127048375,1.4480586443707832,0.7751137155559836,1.3181338782783267,-0.9737810509237135,-2.141685164264809,-0.8889280612357691
-1.2887411330924543,-0.07690808498296217,0.364024134773946,0.8031389739560023,-0.05943733708258296,0.5917900268487335,0.12671029865343447,-0.5355662567561624
-0.23624129626421903,1.3285165960999277,0.2710018553743278,0.7579442474877768,-0.05330621796253616,0.8827278667896672,0.016894312510109127,-0.09237979027409231
0.6755404668721573,-1.1005920244974345,-0.2283033033438526,0.7365098959529255,-0.24156357909984824,-0.5063856377412893,1.2146527495375967,0.6091083406802603
0.2958789899290884,-2.7724040503446963,2.073264504233601,-1.8609726195729939,1.4712985648052923,-0.9674133949295222,0.22160910692665298,-1.3760545613462851
-0.4681040045149708,1.2097090607887857,-0.6528297076417471,-0.8681980105091309,-0.9424526300213689,0.25164833414676285,1.6785352459102163,1.1118689068861816
-1.1361031732915992,-0.3172818179399123,1.5121061145787715,1.1626662839729722,-0.8794178087307694,0.2621089691407196,-0.4028700049944453,1.2359476902758755
0.48224424136355576,1.3044201679521557,0.19627606353996546,-0.2290208606780398,0.5868851478646974,1.0085581492002103,1.1721389739187908,0.2481305386074623
2.0890020400031504,0.738627731297664,-0.5301883094783463,-0.32932081092705234,-2.927937573295174,0.4761341745153484,-0.3895984787803294,-0.03616908828981678
0.12450415891060423,0.26522147247130273,-0.9221425746022983,0.6440715226948239,-0.7811278575674712,1.3647876096973448,-1.265435934885085,0.03096015562348922
0.7327494014776114,0.4818545076657674,-0.613176397685068,-3.0006944544756853,-0.2464469678106768,-0.6941991930964462,1.0598596959460431,-2.2757636521129774
1.9111368267455449,-0.6356750651560713,0.9296492611611947,0.4019434412088591,-0.1693563476445423,-0.3049814273245301,1.7892606100994966,-0.1188905038135243
0.7289442178043114,0.9459955934000165,1.4420738415855223,0.9223513632110267,0.21410586001438808,0.531900387114352,-0.9649379098593271,0.542298380773078
-1.4984785828509035,1.6915190744510695,1.867052084026835,-0.691719451447731,-0.6825607050197262,0.23709944179441284,-0.008610878007845739,-0.6779632527365825
0.609373388212685,0.21025872943511942,1.03638841622288,0.7596142279123232,1.8905960723493973,0.23429998343488645,-0.266297055297495,0.5361066515175559
1.4454533005140664,-2.29593350117583,0.3256938799026054,0.40240637979396754,-1.2019786702808328,-0.4611667539722577,-0.37741371929944045,-1.1372508423590444
1.0405722415252363,0.1216324658323122,1.8463025130504513,1.6177066927293435,-1.485703325184215,-0.5475796321963009,0.9530004487241108,0.32990039918560754
0.7135993277088168,-1.010696694402993,-0.9394640071833394,0.1226043936726613,-0.6317044637966007,0.10425475680383652,1.5244383122163987,0.21331742283654037
-0.2990455387992893,0.8915768526358847,-1.7918373625473019,-0.5828563289256893,0.45106956311381774,0.9355172732073403,0.5136603866243152,0.20745207565296353
0.18007981087202174,-1.5452807836783675,-0.6666523842359694,0.0914186192408452,0.21398082973690746,-0.24713429746824644,-1.836570548699456,0.16395482434244826
0.7240195809147472,-0.3311081741561375,0.08254279707542253,-1.5161261230962502,-0.4976340607133095,-0.21605320991457475,1.6640826988465336,-1.1222842092579646
-1.090405175526908,-1.0210815930192125,-0.2290873805234864,-0.22644927542501148,0.0772360885293086,1.0830966030225997,1.6515326642656134,-0.06843163514561268
-0.19999379068034312,0.2556640228327095,0.6129953569328398,-0.1664085098590688,0.4719816888345341,-0.11942709991361435,0.289328776464287,0.13087004297452
0.16441964618535804,-0.5749568577727646,0.673738697655346,0.8680582681509976,-1.1115319834094315,0.7466314286546278,-1.55174072906657,0.44075147769940654
0.4492003991937109,0.5858927680827027,0.20366840614884546,-1.5068849406297142,0.5088528797565641,-0.4873115927225579,-0.27164930939462817,0.3861003482376836
-0.26040228228468304,0.6826989757650607,0.26130456012397363,0.16446514608983145,-1.0902154263917199,-0.286714307424491,0.12149772505432183,0.3154900728199825
-0.4123076647056847,0.47024926301626396,0.49938797209094027,-0.2560116649666831,0.47094786993001503,-0.33277762153688456,0.37323356729486984,1.2964717966360737
0.13512082522066846,-0.9675554187628588,0.4008274557232871,-0.25777475177683484,2.251071095364633,2.624932784253676,-1.1438542878212934,1.1015352444487274
0.7172725677116808,0.7236138067336152,-1.078044181538409,-0.5719053275733851,0.4336769160425258,0.9683468957432138,2.027516966997174,-1.4428449926109062
0.32477202582945447,0.80527183571148,-0.7132948008195873,1.673475231870051,-0.5491680464106848,-1.9222521869767426,-0.24780202462570095,-0.8078101923304144
2.2870631547453484,-0.8292129428636285,-0.1126630091541504,1.0778371865823144,-1.666185458676759,0.22190607330804799,-1.8682776125491625,2.744352193499745
-0.6664735504375882,0.9830848346701966,1.6212295869989355,0.39181179697277196,-0.9602879576684773,0.0719123084419718,1.8960689080589448,0.5168250048963484
-0.32577193178624503,0.6869171571076554,-1.4976429614979598,1.0077023556135245,-0.016875432195774028,-0.37218088751367845,-0.3066417458160618,-1.5248495715257282
-2.499979988396974,-0.3235741526697445,-1.2382820748843169,0.7271968019894188,1.8559610867249117,-0.6683790983260403,-0.3435832483638421,-1.2341529885839386
-0.9903082600715519,-1.2633946823508995,-0.8599508140891113,-0.1302749953341467,0.9249294801911896,0.6213648178579919,0.07111555239275259,0.3715595730153676
2.668474512217414,-0.29919870444041896,0.26620944385407036,-1.0022321216667327,-1.3587149749351464,-0.9876161518446291,-1.7204658357436409,-0.8616961535668511
-2.5536972745774404,0.28136671438203315,-1.079069188912929,-2.614490133500851,1.4386534812824077,-0.0971640099803268,1.1012513807785576,-0.7722890617627447
1.3129117547263638,0.3890939292719343,0.28989140242862055,-0.38783975648486796,-0.9860636875815607,0.8615307305425618,0.00909199680676595,-1.297934774418305
-0.7026103595415361,0.465308745220137,1.1348845047520528,-0.7505526303167206,0.9135883941228178,-0.4191066960870988,-0.7970139094218679,-0.3953187853227365
-1.1858547203427996,1.5141682765601288,0.852968671547057,-0.444791085466036,-0.5800464042939373,-0.7827053437765944,0.8970157837147539,0.3420809974829372
0.7257138989237704,1.1260101003644785,0.725219930736701,-1.4322972110339816,-1.6939373876532169,-0.617463938342619,1.3914244355728311,-0.9191938784825737
-1.6122876726741753,-1.6518061780657098,1.9558861069136264,0.24441522384824774,-0.47680250448795447,0.25919442307705637,1.1183020919708848,-0.45916273180955375
0.3689108594380243,1.3492336758229642,0.27843186107381473,-1.178854165801035,0.14490478131412285,-2.079810043107604,0.4902754865070714,-0.2393178355133436
-0.8940706121757898,0.2954828267014201,-0.8093960129151953,0.9234328764710623,-0.723732024811936,-1.1335414641532324,-0.9687935694501614,-0.43790994311743375
0.40440390973017165,-0.5436368513263888,-1.1007923150053924,-0.7463647709320365,0.47632080231567947,0.32820351495249755,0.6269253694557938,-0.5679238233229624
-0.5851899300514836,-1.0116236802963987,-0.36725741159249625,1.5568642816703981,-0.9427727479546805,-0.6345333017844711,-0.7087045611808901,-0.18243176831873417
1.8548620571554046,-0.5712503313709414,-0.27640542350179026,0.11986206778871698,1.2338469910217569,-0.7781627062625496,-0.5832234474042565,0.41088140549662583
-0.004494799524204425,0.30727167000544914,-1.3813158277665107,-0.5123095854490223,0.9831152601529694,0.8867742646943133,1.1250809169462288,-0.44999311439906836
1.2106513959905043,0.5846351380525802,0.15981128853587856,-0.01952033187690713,0.9432337937797557,-0.9968416794074824,-0.8483996680665854,-1.621095472397126
1.219673758491435,0.16933695035023796,0.4906302863031128,-0.6958784714199336,-1.9748968404564893,-1.7281363023057514,-0.09139283405795956,1.2630021896992576
0.09755322064060667,0.2690528270299939,0.07059297312335057,-0.42945623622779294,2.27554686540409,0.7462424337866046,0.14105090570778672,1.409917221115713
0.7593329597956948,0.34630001281976497,0.6496553698863932,-0.8916036513965903,-1.0274303727844516,1.449167295631414,0.7652030521004212,-1.018196770725073
0.11508187025300863,-1.033085850553303,-0.01976225850888535,-1.0778097356960648,0.1704554342974281,1.4359210117441792,0.18431492706570912,-0.7706652531920599
1.023863578758344,-0.3494311891937286,-0.31279033008024604,-0.014065450655473447,0.6541042731817531,-0.17385259802526407,2.2182253771750537,1.4282170981025228
0.12139564699472079,1.3005890652024001,0.9747344189426662,0.713518823715054,-0.23122960682733568,2.4650102963161995,0.7441494726806218,0.35112922387447004
0.6717816924768183,0.31955937871177015,-0.11175843893935551,0.014639015715096598,-0.4918488456735934,0.8636245309447391,-1.1212957721518773,-0.9857745550453013
0.5985843468287135,1.1741706826471114,-1.076943247303478,0.2712002148100282,0.4085783555358753,-1.7520081414818856,0.11000398529024501,-0.49911526223011166
-0.029930018377877513,0.23424315904156956,-1.6367615272647398,1.7493871510095684,-1.5075132079510731,0.2611713784914867,1.312773935581923,-0.8516759489325474
0.7258621580053157,-0.3422706361464116,1.308337322968572,-0.5448894161607196,2.2772624766339242,-1.4596679839326905,-0.7410544773376121,-0.3309691911758502
-0.8710551032640114,0.6756278494674012,0.2503634670621457,-2.5132200650571437,0.7466667780175325,-1.2076585461778242,-0.6383510562067467,-0.4733405375487594
1.1512858189079267,0.4988447224081883,-1.013978189902103,2.207183453234179,-1.0791166306533266,0.9940676823460534,-0.6395028556070599,-2.790437329008667
0.14130204897063273,0.4177925492170921,1.148497582597373,0.6382957612469441,-0.9347013961723456,0.34483815239312926,-0.90093764829402,-1.1482389657597212
-0.04801267319314603,-0.014398401482956227,1.0354588469911357,0.9491953859007062,-0.9022174134198078,-0.5545463555779973,-0.16770771134337262,1.2327691530688967
-0.25461256262291637,-1.1272440300197077,1.8629644123287012,-0.7423460729296991,-0.34609236451646735,-0.9552788432768929,0.39874717097625545,-0.22446853462752603
-0.5253185487311288,-2.266855946657523,-0.7222562664429859,-1.4120062774876405,-0.5089376240276459,-1.9968712040122982,-2.101306091311457,-0.8948917868560494
1.7933670520634715,1.7214314807381355,-0.05288273025952992,0.3854777158006259,0.11948410469835917,1.1773973637362907,-0.3002684526619546,-0.6149971072156056
-0.037717283384282124,-1.0392871319181893,-1.2737072602710129,-0.9747877781573309,0.49278096912416086,-0.8736294481063878,0.7761070846242151,1.5338903998929219
-1.2346722140800779,-1.158619988131097,-1.7886111135768636,0.29858648111965336,1.3112551908206025,-0.3036033789770633,-0.013744034486126811,1.0802748974169316
1.2748714256378162,1.6257848529160457,0.22807158729038485,-0.414988010578873,-1.1598516985495588,-1.2700919896575225,-0.5659253545715791,-1.3814612549460057
-1.2562968614419747,-0.38876580722790277,-0.8590727933804408,-1.7514833634089684,-0.3602678894027446,-0.04638180012652218,1.1644056975049275,-0.5020424552186414
-1.0669688425205865,-0.2499352543205195,-1.6776605716910664,-2.3075081993105364,0.10349612706449793,1.2792962928510037,1.4727186544752213,-0.7655865287346084
0.20269013288336865,-0.7301026437473832,-0.8969910554634272,0.13385899832100484,-0.09106835675439215,-0.3659957627057485,-2.3903976657716477,-0.11213084392896992
-1.122428435966947,0.4547339636065137,-0.04065635133653306,1.0003391486072475,1.1701761786926854,0.17445760469082972,0.831470231980843,-2.1673229944020704
-0.9402733443960317,-1.3009749442266196,0.2661420041284888,1.2068288024701026,0.2632884657271001,-0.3757448676350082,-0.8671225290696799,-1.2007265221386463
-0.24322075394519688,0.11678555682521506,-0.9835646099146101,0.4872365731210006,-1.8042800089705067,1.009914966242729,-0.1724730835047381,-0.6149553794676084
-1.0476245294536746,0.6143720432609291,0.7374089703943266,-0.6122684360934512,-3.5776918055811486,0.521695242623281,0.21757461056255625,0.008268740231982132
-0.051790601301671485,-1.6727103761033348,0.22996791835786948,-1.355539558310301,1.7773878635691294,-0.04526991132428988,0.0376798318888202,-0.908033757141314
0.6798990575995681,0.7173826344214106,0.25504524664344713,1.00773104440212,-0.7532062390209189,1.27898934358147,-0.016777406546180176,0.40501704511956155
-2.9072304216308416,-0.5077371055245165,-1.631589998665748,-0.16767847023528082,0.5317246553155554,0.62319960237274,0.6624447322071052,1.0824045020281539
1.566921564145745,0.6564890274290125,1.115635765428024,-0.33684966646715103,0.5111020376766665,-0.9308461631290564,-0.7616941689808108,1.9575620184806581
0.8009339590358683,0.7740550373099155,0.5961958644874774,0.030974984230656456,0.8986087854759703,1.9309646145935495,-0.32427617043912144,-0.48142283229750205
0.023700086158333095,0.04171443766305074,0.3603654825895601,-0.5698750910846413,-1.9954137865257442,-0.43117125727545924,0.38755691765279654,0.710191365422682
-0.2306251851707335,1.3091000578483536,0.2576717022406105,-1.026156683385296,-0.416868297994867,-0.25459819600719447,-1.2713064567027648,0.49290579304788806
-1.1739363977824504,-0.34003508281681594,-1.0762086468000231,1.3465380973201155,-0.9841712568619105,1.6122188635968724,1.297101259774234,0.9443223557377369
-1.429247314869957,-0.4509566773158867,1.4357106846980323,0.1798064987692575,-0.45154644203326033,0.1785971731789391,0.062400591524183195,0.2213412708876444
-0.5308994300325698,-1.0729910440965817,1.2880058925474278,0.8248548245859132,0.3125532196052546,2.262761693089679,-1.1840736169163015,-0.5504317381506967
0.43373188593061257,0.8279216412955173,-0.7871104644330141,-1.719575541204237,1.5480492949973033,0.28054745392930014,0.2620389409399473,-0.3591467645154486
-0.16001617408351576,-0.9899294058287603,1.228274687358785,-1.0031757628051856,-2.5118414120733727,-0.24103097833892578,0.3582424803993921,-1.3404431608852323
-0.1516748990586644,0.8966752692523818,-0.9566542046361912,-1.5378933937615067,-1.0528218279482997,-0.9601936083820087,-1.1609788552396931,-0.674107727638904
-0.31662468566150626,1.0517900207793895,0.03133415559248365,-0.19690068611982653,-0.218481149340095,0.22181229069904654,1.0815658846618428,0.2837147317089177
0.043470719749910375,0.30239796662436313,0.3723659634010576,-0.6507538979134387,-0.4372172987903103,0.35023633638138413,-0.1396849094638198,0.9217339733859609
1.2959835579228256,-0.4198580990562704,0.2517192049897584,-0.9162643880495795,1.098880297191178,-0.7170913172776607,-1.9079040658693807,0.3607791195932955
-0.37767456219550133,0.2212390804351183,-1.9881592172554694,1.0518696046924783,-1.504129208198881,-0.2594558896729289,-0.14516054654796856,1.7329641338792137
0.19560607074348296,-1.3861697106119635,-0.3753557278214867,-0.8538936883597127,-0.6077155046257382,0.5774641120855833,1.6388811481533934,-1.0023569208158392
0.7385831410643675,0.5292679010183357,1.0382618006429052,-0.5029871967442542,-0.9083855837871295,0.2887794872747875,-0.9042761158878122,0.33515388114142636
-1.0819033165644605,-0.6535933480208751,-0.6810125928597173,-0.5104427937721729,-0.46255240524275676,-0.5524552222639737,-1.060146807262784,0.07549959492214073
0.379232324249237,0.1868702553155582,-1.2190717173126397,-0.5678183979106395,-1.3585380352649221,-1.536947574275187,0.08158901933548873,-0.46211274004066394
-0.9948390169873486,-1.6488147361446484,-0.44950939107058996,-0.832955413206669,-0.40177194343704675,-0.8148837540436589,0.8736722656513718,-1.5710076748792186
-1.6624990997162385,-0.7033191165774813,-0.8050198689835266,1.059829913222719,-0.11980862298062814,-0.2551769361579066,0.9167315471587187,-0.34235427744464764
0.07579400436714227,0.2767665529415001,-0.27000443265757784,0.2599367460285131,1.0057610155427636,-1.1181494798838323,-0.2978653686620408,0.9271274511180233
0.7955766701144369,-0.3420252967968258,0.573655710686226,-0.35562233293536666,1.1404458490861038,0.4078421556361299,-0.8023098219190877,0.8116177174355592
0.019723407976090963,-2.431743961476555,-0.6426740517775082,0.5453559334518207,0.6715578796731211,0.38535773930123846,1.896584020650012,-0.7708662102340462
-0.403481671553501,0.2446190245174602,0.5161714295844154,-0.8696888249756372,-0.30562574469317905,1.6747117802726543,1.513657549852409,0.41207613753707006
-1.7282661915175077,0.38660709502111484,1.0801262615074276,0.17303028811253574,0.5477033831031142,1.6841899296779577,0.9788576031526323,-0.21283437917169962
-0.8087976836597008,-0.6889278063797034,1.0865603772596246,-0.14308204822223625,0.9660997068491265,-0.5192053934823203,-1.245247346177427,0.8404279215591968
0.3102410014827854,-1.2052229245890176,0.4082952357302438,0.10537050471124419,-0.13052384243945098,0.06890536434070745,2.319046356198785,-0.526878656383738
-1.2794626340492856,-0.8598064510460997,-0.5077200768461144,0.8169354902351402,-1.860047874934135,-1.073093241912515,0.7563042988457581,-0.3869494356884436
1.428472974573252,-1.1391630691919596,-1.2276090880813357,-0.41133321567599496,0.5655305798361651,-0.39589884141443993,0.48219722904169793,0.47131401852699084
0.062213552741934415,-1.1674382628672004,0.19833759364427594,0.39685416235121956,-0.6708568045509158,-0.3548122787795155,0.3517298456453736,-0.2580002859810241
0.37066869652487777,-1.459393528521322,-0.2591071739391195,0.4247185034119161,-0.20173582099286252,0.2702880861880465,0.934204078412236,0.306548495318544
0.1338891530070449,0.4327948118512297,-1.5413666254783545,-0.9218566957659683,0.3939317272083578,-0.5199608396636219,0.5743766223990951,1.0067741800263161
1.6427874780391907,1.004972561897806,1.151969729615687,0.20944802662679762,-0.7784944463897995,1.3338043597330582,0.264070303784576,0.6119395800450791
-0.16364457371164023,-0.4455508190645917,-0.20967021851631015,1.1792260443321148,2.458236238300857,-1.5189846073615931,0.6424671164253953,1.074944628903824
-0.9043297600807757,-0.9561931788116595,1.2508584712155868,-0.9909997912098272,1.3850908628054301,-0.3515671618338072,1.9204673090922877,0.3942395642421171
1.0109440962654683,2.047684279103268,0.8679593442833259,1.2270250789267996,-0.4177113780071679,1.0804232479169342,0.7740467113803245,-0.41847531486726397
0.33032472024930865,-0.29664767835092365,0.016558284439890547,0.29953884891267063,0.8975138756779747,-1.1812572317993073,0.31006667978262115,-0.9705668564991563
1.2645680992431094,-1.031303508391503,-0.37210289771740324,-0.0012890543160141764,-0.4671398413170712,0.7375367280136484,0.7697781990853497,-0.6392067768805613
2.0867171784282808,0.5047325488064197,1.4315037671597017,0.16640677773125098,-0.7180850547792813,-0.4442096260786921,0.2568619988449851,-0.6899706529413772
-0.8672770132391238,-1.5418522418617207,0.6643715973915241,0.8065289932726895,1.7128407055911494,0.6962459753989599,0.007232604377725912,-0.12605397858584627
-0.5903907176249857,0.4036466158360329,0.09546173370014548,-0.3067974508524748,2.1341400082500654,0.13668487995677142,1.0751861952231978,-0.6602137949003473
0.14887940237700653,0.5357660736285202,0.881350818473524,-0.6236574523005126,0.1448423330239192,0.06451044059106799,-0.09189658322672728,0.39015184088811056
-2.1869002316640724,0.7491241811359062,0.44226655818522287,0.9600108752659802,0.07593868340373959,1.1221293998473767,0.02488528741224048,-0.7118928980233724
-1.5907609634550488,0.30884472708115496,1.5676120169504688,0.8812085326467151,-0.07114084759636011,-0.27366303687335036,-1.2607264978402468,1.0767982329250636
0.47004854847218314,-1.072125370595419,-0.9358227560294181,-0.7015890764638706,0.15350222578548828,1.4189948237296832,1.141410761313022,-2.0258285427224836
0.828886063121249,-0.6962063976283512,0.751185707588356,-0.43258239855839326,0.916426661531101,0.8531649527809544,-0.42789420064537,0.7949415056241276
-0.5369177364090993,0.8767611103425654,1.12554454959906,0.7858964952218177,1.1382843659429007,1.358608398994201,-0.3852883940418677,-0.013284722247425957
0.2882061352095965,-0.9169903476346195,0.8163523071286649,-0.7057769086665848,-0.26794561429262403,0.5067782074699774,-0.13309424102078107,-0.6243302432663312
-0.6818007452063062,0.8139074666339621,1.7307234751200007,1.494781990989213,0.15521156927193108,-1.7307394500626443,2.1256146245728678,0.6009651059328219
-0.46626544906565526,0.10666344152703597,-0.21015906059461528,0.9741350729736037,-0.34969991293759956,0.2470126015829684,-2.406741465268216,0.4042143474200369
-0.9664190762045584,-0.6654648444013846,-0.4991437377117622,-0.1498105209416314,0.3327162447432376,-2.3512377460425133,-0.5001258071355582,-0.1390726681413904
0.4947294054300909,0.13242310312154892,0.684911370028973,1.8350032621709458,1.9077002389120419,0.8734835299597244,0.03771822559666576,0.1497789076064536
-0.7418646771259978,-0.653974088194622,1.1086204854091524,-0.9866283529924081,1.8963537465990379,1.0153692213638443,0.7221654770733286,1.1519382502391933
0.3681985388754925,0.7231472633138967,-0.4373174146830712,-1.289620403608128,0.6775162457911863,1.5278644934835819,-0.3718085347025076,1.2951712333666487
-0.7154486305970609,-1.5894043070294133,1.030448752298973,-1.021093304372097,0.033723485771265334,-0.9497562841547464,1.0704560701090513,-0.5016636242943087
1.752339221053632,-0.9369778719126992,1.258030992165321,0.452421444650436,-0.027539943340379253,0.615097084583641,0.4284047339798614,1.3182630813216671
0.5961594274276915,-0.9832377457609869,-0.1961922982155366,1.186993424757129,-0.6911185837153252,-0.784740826875774,-0.2117000769724369,1.6546085587073918
0.0922572694751485,1.351880707731497,0.47055805503571196,0.5420210939417411,-1.0398073905112433,-0.5309276832821183,0.42303435827798785,2.687462165414568
0.7844428507119139,1.9485466431492076,0.8346187502673929,0.7133967456943664,1.3546317757843003,-0.6525555653753712,0.9632669013840757,0.5946999731491108
-0.41960778905784896,0.13861139777237097,-1.2768659605756572,-0.29798794048227073,-0.5010698280498785,0.7451779493772968,-0.2480130065311857,-0.40791772040850016
0.045538997979756524,-1.1278919572049164,-1.2986729791793297,-0.45186749169850704,1.8322411224294552,0.9875240384141675,-0.31772246170490437,0.6036101438852962
0.25162188044020023,0.14756148601558355,-0.006011522191428415,-0.5803700817115796,-0.7509405239877783,-0.19503560741366996,0.1484580850287359,0.7619799127324234
0.6790009074979041,1.2693573995185887,0.9654931708234463,1.6255081829467697,-0.17090749171916408,-0.5627119524106974,0.1943294541018797,-1.1816682404613612
-0.08609377131350707,0.3155919108563935,-0.33395214192949146,-0.6578909093601691,0.22485370059050344,1.826873947311381,-0.9922957415730387,0.15112614041249614
