0.05675658723542685,0.03875187105754211,-0.7437387721797454,-0.3969847330734835,-2.0786805293671353,0.5234592687484962,0.9901992043893164,-0.8011170419151338
-2.1050619393884578,-0.2783849794228273,1.9001606860000408,2.4766795869379874,-1.4774009824726588,0.012702826190058877,0.6465449086511732,-0.42838684156414775
0.8165042804753394,-0.650390332528395,0.6330167033183132,-1.7092421762999765,0.7206319708173659,-1.4996843454112208,1.9158342615621533,-1.5028615138478707
-0.692903597214526,0.719341707538937,-0.9125423153934541,-1.0153479185314076,0.11239283095253509,-0.07201832730612333,-0.4697383633199601,-0.16145874845198738
1.9356572324296357,0.5145977752175218,0.5134148678925503,1.6105055031950035,1.9065462762805325,-1.5376287082275826,-2.1299197718869487,-0.3984775663017166
-1.1235720618434633,-0.20189844417089467,0.03176117383145813,-0.4805357172225428,0.025303389946380928,-0.8312384919272631,-0.17448482863202697,-1.2013129783446208
-1.1031370817292814,-0.8884803725124646,1.3483051466869556,0.9489158977672242,-0.10607038712378182,-1.0763445551382043,0.5240097063208483,1.154223777246394
0.7842452179542534,-0.5377165824061745,1.6497098439418638,-0.13087393479703197,0.03057293757146034,-1.6750537044455522,-0.6429917332109759,-0.8185669311145631
-0.1305081921004287,-0.6313312347310979,-0.3130594658401863,0.17847985958094115,-0.3926297781342636,1.417140739590716,0.9824638861890853,-1.421108752433197
-1.6496627535682071,0.4293555335311256,0.3592066665731488,0.9694663733911507,0.34524624697740763,0.7789895899334943,1.9861642116572298,-0.1056084197693039
-1.3244313371097685,0.7294518188575554,0.6620956351825366,-1.2305667411889445,0.712456712393524,1.2009512423150428,0.24063879362892493,-2.354365823938573
-0.49077920604471714,-0.7884988244928213,1.6314351311065671,2.5807933628164643,-0.6925247210953308,0.7538729660977345,-0.2626706834794694,0.15288610536383423
0.6441943357923069,0.7495357818953077,-1.076609550383415,-0.5416701353827716,-0.15727856112068372,-0.5341502632050409,-1.2413860944445338,0.6135113302074174
-1.0895191045320691,-0.11439705688332767,0.07689415522071948,0.5908651587298684,1.081292342220763,0.488688422776714,0.6791318252084572,-1.5574489949077683
0.9373511740940792,-0.9136413620228212,-0.24623668324535483,2.9307997719919263,-1.2701077930461133,0.5155213918639311,-0.9233122296604419,-0.07831023843159321
-0.4902969352914933,0.2570451646406501,1.2895677751939445,-0.724947805373506,-1.203129198135361,-0.03812376779396504,-1.6791275510779806,0.16183925654419987
1.1865594129836978,0.22295320951799735,0.4566204624602706,0.3968786107704259,1.1979588634692138,0.31524165023464035,0.1323389722265842,-1.5167451097605646
0.5772948824589379,0.6730239536671369,-0.4126440624365347,-0.37718840971721956,-0.9127820294359099,0.5975213275695247,0.7400661082156833,-0.8751745555115966
1.3513087881800196,-0.4775346378780107,-0.0011666358042715093,0.3811044208299999,0.36271440213437284,-1.1143478444108483,-1.6760315770938836,-1.2279388744754858
-0.9442138858653027,-0.6170654903959871,-0.24782863583312656,-1.5914395909599757,-1.182537419997445,-0.342103317400429,1.10636241382451,0.12344113284078231
-0.44611134398849234,-0.6569001881349807,-0.027839704817497993,1.403746136793053,-1.2590820522768746,-0.4505573061489542,-1.2967788984296713,-0.20677288157589663
1.4335500804938184,-0.6055239460703117,-1.892845802075703,0.3813446692053265,-0.5588491026697722,1.243968323068981,0.31177192924233016,0.6012763004314812
-0.6980010681637346,-2.0559935935604625,0.46581033452700177,-0.7844777005809968,-1.0254619909167348,-1.2312081643338462,0.9463817332391239,2.2427248414263663
1.5543671897683302,-0.6938149411722132,2.126954474721766,-0.25850563085018624,0.5243137868865405,-0.04980063329636475,1.8381391150805007,-0.2685600389956557
0.30032825888491005,-0.9500514468975697,0.4953764961776991,-2.26467300364191,-0.839915717788836,1.2392376222793673,0.48556575501635796,1.9719260226364017
0.22861421120487652,-0.7528599422613989,0.6823679025696897,1.428760649494106,2.4057170268503425,1.1890323645850331,1.2085021725587237,-0.9182906648457281
0.5875384357879491,-2.033539439044655,-0.3096699969054341,-0.0982497001492851,1.2398525999919363,1.3985613981093248,1.1743955500123429,-0.6146526008636763
0.9849496469378839,0.018511991502534873,-1.6503136304930126,-0.6045963475225286,-0.47292123660716273,-0.09968865098260649,-0.0836778759935075,-0.5172122694049981
0.9081780277788252,1.4139121796572618,-0.5594312446769201,-0.7937286250948326,0.2582676071943989,0.028505827686806724,2.2895485256916412,0.707118482485857
0.07001615833658865,-1.3631949242286496,0.2609444542838256,0.26401755626853335,0.02748626630527026,-0.21839820662962578,-1.2945826009988664,0.8482414562746761
0.5564421641347522,0.6215539751545595,-0.7361740488705343,-0.9437061071265846,-1.1811857023972707,-0.6559124005681243,-0.37381357282249994,-0.5092242369429989
-1.024279801573995,-0.5513774172491026,0.7642362715536807,0.29302741155205503,-0.3011577162063784,0.24922895026010555,-2.638954668175618,0.48445790879964923
-1.1881427450003728,1.4809778071462152,-1.3623647951897702,-0.03130585359969658,-0.5921319893748905,-1.2625027852499786,-1.411424747689882,-1.561873182651607
-1.6017862986722604,0.4336345970506595,-0.6193581622013546,-1.3470111904461377,-0.33867294010816834,-0.3224470211005671,0.33375479814188996,0.38088271593228906
0.2607903231229816,-0.09887628560111911,-0.825884322103786,-0.36023522848529327,0.21109340881313626,1.0649670140694665,-1.3809495390988273,1.83756560276134
0.9908462199785745,0.7668741961447075,-0.10218409612620175,0.5408337470073009,-0.1420211874115712,0.06325024730402304,0.6398029144226093,-0.020365942720871083
0.904216757688562,-1.5939857322492859,-0.551477579463513,-1.4234970597527077,-0.7319263072872256,-1.801433381471279,-0.9209518176810815,-0.3059044388427838
0.9061049119857691,1.2615297279139364,0.5900640214863695,0.3972444154339255,1.0101998767785605,-0.3369063348112256,0.06344612582828946,-1.4183615586176
0.044759394824999424,-0.3220133764526432,-0.5916520090797329,0.9472368030471914,-0.21207051895207188,0.06730388808897755,-1.2687883816482735,3.3657376159546764
-0.8394725627522577,-1.0035917039659499,1.6534131197805095,-0.44455407356390597,1.7991940793227192,-1.1203365434042585,-0.7097164002397962,-1.26233325037189
-0.7842805892654428,0.22061402462984164,2.141831019363464,0.34585136869855265,-0.550228441050789,-1.6328795656367192,0.8862237555471301,-0.09070821125568836
-0.7410173298063403,-1.2000108465182056,1.4357552937747708,-0.12413341795437728,0.9900551456607609,-1.0673991705490875,0.0035375548982765825,-0.5471533556357668
-0.14479668995774603,0.3039636403285779,0.23213719841554675,-1.3845994287725396,-1.0098267715102112,0.9137429714154055,-0.915563775956745,-0.8548172358370709
-0.5523734707500236,0.41572468580909006,0.08275263366639997,-0.050469512725755436,-0.620449969224124,-0.8280821563237213,-0.8082489391455356,-0.5637621099179149
0.8929299519247323,1.0275779167314332,-0.2602590171926515,-0.9071199240170567,0.43762900380999087,0.3423272448238111,-0.09571249783341523,1.2972418477912349
-1.6896462305980264,0.6367671026320928,1.0575746294640558,-0.09048915272074708,0.7259185837455248,1.3031023531003585,-0.6575160899911737,-0.4404042380460131
0.9241576401304323,-0.025290530524315118,-1.484443848776967,-1.851475546295877,-1.5404737887407165,1.8492351500309607,-0.7261210365459032,-0.5955722616337554
-0.13028156280454783,0.0939055707304198,-0.2733866486642717,-1.1142800603257497,-1.090511658215697,-0.8984930974738327,-0.7256026513303739,-0.7996838791287318
-0.9335075376411908,2.128399109553481,-1.765884789955605,-0.602605955658122,-0.4936025793825615,1.4537447076953394,-0.4988127920782282,0.143131616160906
0.7420892432304432,-0.8331318436721095,1.36201507413056,-1.4497814449074502,-0.834206420862965,1.0565627268313098,1.627285916577095,0.1389215537101931
1.384851986048947,2.13641341610774,0.4891928661074078,-1.5010288945056838,-0.19501073633665192,1.1493425535905442,-0.5901310396182242,0.5825376561462196
0.6196855369884481,0.3628053524613807,-2.0949518363468176,-0.6722636908196644,0.4220989864127451,-0.07936410734102392,1.170635839157405,1.4191289193904038
0.16794744653700616,0.04985933619904276,-0.7318072101741167,0.30417683234139786,0.5474812687420856,-1.5220917508046932,-1.772951645114448,-0.20343751830787005
0.7501515979806505,0.6939960802591256,-0.5711542265038863,0.6237354464832596,-0.041042000917417755,-1.873438215329207,-1.697433179770677,0.5447698401127655
0.041133186252061846,-0.8317921882518103,0.18533010474388747,1.054659991616384,0.5530867135969847,-0.3033930227784853,-0.5179814542334927,-1.9775217831685759
1.301078938689632,1.4668020052288537,-1.164495963143544,-1.2233133057171681,-0.5749365764383084,1.0246824644580776,-0.534548157395302,0.6831896903723028
2.3243431945519744,-0.7976933377808169,-1.534555473286799,-0.3416824760401011,1.719011506821529,-0.2545110077851224,1.5620024246370219,0.5630263451088913
-0.7583984145006839,-0.03887868532448366,1.1964458340129172,-0.28576239529834896,0.981098756245089,0.9723323393559111,-0.21414709703271814,0.577040446902055
-0.55710159714179,1.24193287186932,0.902590331961417,-0.8008469700440122,1.0619886723489758,1.4936406787037606,0.9405272223105786,0.019608782903663465
1.2948473908928047,-1.6126185458228348,1.838625642790696,-2.331599994757632,2.5712323454053054,0.38486368057267617,-0.11428496837007757,-0.601976784279489
-0.8335008235921275,-0.32693103192834805,-1.5594740958676903,0.31342197317787435,0.23856700376767004,0.8758301094758136,-1.747598099287145,-0.18378655418283912
1.1044507854438663,2.7880071478305086,-0.8825532945691306,-0.4067695262763431,-1.2447859915924715,-0.19982337495514602,0.05760063317660538,0.9635938183959857
-0.7918905239749733,-0.18101217037530157,0.415922528257259,0.28982806190511323,-0.3356893557157457,1.327882040152901,0.2132721498701181,-2.033871057298403
0.216703640668322,0.25747243363391753,-1.002926370928536,-0.4834891656804242,-1.2187588137570002,0.2198738041200385,0.8029004511923115,1.3682298894520257
-1.1132755219008297,0.717640483635537,-0.24204441121329617,-0.19195283640319946,-1.3879898421683858,1.1668108226923526,0.5136883431357796,-0.33106086065394963
1.3374109671951198,1.5980137036215605,-0.5682603198629059,0.4254069001226786,-0.018940621333058367,0.6576737093620775,0.8864974419726926,0.2832231803558836
-0.4749583077805922,2.291103168697772,-0.9066339845656233,-0.3635542686829254,-0.7283486612223131,-1.7599201117293142,0.0031434851029621498,0.9287574587146151
-1.3144254888365146,0.04613899631634551,2.2784330737869762,1.1767589989838567,0.09757913181299814,0.23563032523511748,1.3369633931975933,1.9020015184973422
0.3209629014629434,-0.47036143277017795,-1.1844576368819495,0.1394041519220106,-0.6874796351908274,-0.25808096071297115,-0.06664745400003803,-2.470150512817911
-0.25871094404281164,0.26415119917795565,-0.66027215488408,-1.8415045631265703,-0.5182096105342269,0.23441319856104878,1.318195858467332,-1.5256861470761696
0.5305203062827857,1.2169919758685785,0.19987466635881382,2.3329171649456657,0.4421618985628271,0.04494101061381229,-0.6822956195545027,-1.0832879056927245
0.2978944512921218,0.07919769183740981,1.3406492163395536,0.5923916633042835,-0.5261614090094419,0.8982847890327348,-0.531024590006833,-1.377148180728139
0.49903800785421826,-0.167273744040503,0.8296102686138187,-0.4855798939160817,0.14043429519175613,1.6676928163542506,-1.228785718920713,0.08505924631491822
0.36788299055089285,0.9642705532588407,0.02402441263412571,0.8257231237651461,0.3956551376536959,-1.2128618227017791,0.15327618102441748,-0.3822419422267669
-0.575289706893031,0.8479971455125084,-0.8920842179915275,-1.5110478696425391,-0.25354903739268453,-0.813209546954416,-0.628441890608568,-1.9181418357332545
0.33692306631459296,1.4986856873805106,-0.4095208308309862,0.3413029139216583,0.08957946896813579,0.1672830448318879,1.6306099044018838,0.40513929689743766
1.10180084200792,-1.289700705442173,0.560805165131403,0.23276508656687428,1.0962745563063765,0.03540367919344366,0.23067697749187377,-0.35182363599536237
0.5315682838794349,1.2500418857196,-0.38724392495133214,-0.5131564812291629,-1.0066805877739577,-0.5109277951394298,-0.4414447509648016,-0.44265818362058135
-0.8992834600196197,1.4089332566818717,-1.0276799871978342,1.5388368973072806,-0.289334345641177,1.9761585186642634,0.6476039557265774,1.4258669283289858
-0.3544979826528427,0.9769895545933177,0.33985289891325826,-1.1168304210457631,-0.32588548587815047,1.3646751010780025,-0.6918288223504426,1.4794391131355225
-0.7057746854888683,0.1035292327999204,1.1788626544402214,-0.770370507599421,0.03347840749342852,1.5027604775061512,0.2988171476941045,-0.7816946281469878
-0.3970036075339361,0.383715810811572,0.25726449200135504,0.8626725660847794,0.6641091557732925,-1.1145721527274368,0.06655918351294886,0.386456106145466
0.9127119941862047,0.15281381195649965,-2.100586419296515,0.8375626806934333,-1.8823638994268523,0.007324733632661293,0.06058451656688165,-0.3845912904833379
2.026708280923921,-0.11381288866385268,-1.2006453013696543,-1.0476516192697327,0.559286322896014,0.402068390964727,-0.42741668333536315,-0.3235081283988251
-1.1744586653436437,-0.07663799946170242,1.1342550984280377,-1.0980670849456737,0.20500059578614363,-1.8360003903942836,-0.32860274960215347,0.29499562350588865
0.15253798858075066,-0.7324624147942054,2.365873580455545,0.7731293421929377,0.9954065989149393,-1.2991046525571037,0.7386253786724523,-0.9808262888480641
0.817611471446058,0.4980550845650082,0.5078487075842947,0.4754743928571278,0.21054787446548107,1.1198177851907882,-0.6406661330402043,0.7690109288762648
-0.5796954169786528,0.2410335963665399,-0.9268203937232758,-0.8674266862352987,-0.5382502656592456,0.06962445154809972,-0.8815093775131339,1.4558361196913157
-2.6332429441640413,0.21365940971653408,-2.083831285670448,0.5875478613885047,1.1572986775577019,-0.06693700048357715,-0.1647555927703391,0.2862363212482769
-0.1849240218602032,2.336185512833471,-0.41881814814255003,0.5223724592150474,0.6939590664978567,1.0004058032013254,1.585596611327238,0.174447074398848
0.6456340184609528,-1.3963325032434948,0.2398691030234358,-0.8801510169310606,-0.8837509539876204,0.27765493203526936,-0.657501120726052,-2.085240949810953
0.4034488296920417,1.7023002677595436,-0.29649116200349784,-1.0672595874867001,0.42677514397927224,0.2343558503933678,0.19444176865580545,-0.24859877213844309
0.21002491975565987,0.2438402884610304,-0.3041098556868714,-0.452714643492529,0.9844569247716609,-1.3139287963044497,0.9711264951138415,-0.2954246191374623
0.20967663338911205,-1.1531035338294826,-0.29618633729522087,1.2726436268543329,0.7265204632738039,-0.22002276183074668,-0.8590427866210659,-1.9611757837650472
-0.6524122368543263,1.7709475161592283,-2.709561514782301,-0.6428155173096981,0.3689364267577515,-0.8636851434124426,0.06454069289730002,-0.11815489381274806
-0.09668953496561332,0.44816262417865954,-1.7982358079342604,-0.7262379929316575,-0.6250772864176113,1.7464936494347851,1.1324488299851534,-0.36624293380766276
0.22009022594999736,0.0403952251553266,0.10683798437502444,-1.4207804981896226,-0.14657794780295286,-0.4004828944787199,-1.348255737759912,0.08832233901730104
0.8507340139313982,-0.339308968046007,-0.7489333290564697,-1.0675108240330449,-0.7293588948211827,0.04742372706932612,1.4715825195580978,-0.10269968179100036
-0.4996407528903863,-1.1596876411578008,-2.2551399479390026,-0.9577002139126588,-1.2621418927943622,-0.038938299608078444,-0.673337824615993,0.4264321694004279
0.06265940668731826,-1.0312860644572983,-1.3794185866003343,-1.3377903687902506,0.08665763942361124,-0.7721923216101305,0.3732924512947067,-0.4286740226532223
1.0600376156592601,0.8656429716500484,-2.522772702758617,0.22473028502887404,0.354021597767249,0.3588155073636332,0.5138978959810128,-0.4261703141340397
0.32409364356845655,0.45301558516095036,-1.417609161161998,-0.8660111669635828,-1.8279913991702224,1.8029358645685538,-0.9012891654292658,0.08708757936488551
2.3446566635125863,-0.9528687939711611,1.2506936232764128,-0.668913300838777,1.9416137506555116,0.862158283566519,0.386074266134542,1.3716133677641296
1.2882924034442855,0.360679487541155,0.49679632670458546,-0.4693998806179476,-0.7419419606593236,0.4840297146008651,-0.6087513107571284,-0.3500486115023673
-2.108137246657578,-0.7921020186762305,-0.5838533944687948,-1.4440588250871966,1.0979336218952556,0.8113938274008962,-1.7837529190777612,-0.4853431260533969
0.27677476278255664,1.283343882673424,0.3009459697139301,-0.5438590735740838,-1.674405102099814,1.03803661174438,0.6464274686900391,-0.9304214309243378
1.328086147226163,0.8151168757810366,0.6524761238892505,-0.12317766878140284,-0.17842623428500845,-0.1558902702488417,-0.26437868087049854,0.13496896167632558
1.9170975133278425,0.578015624176014,-0.48992449801430205,-0.4747453110086477,1.4394614512480115,-0.047985226284087294,0.6032423342865876,1.6314915435977075
-0.998628885691933,-1.212433671956267,0.14140368499086714,-0.8640006173996475,0.132148005699726,1.164437551837177,-0.6477604696736001,1.5972502960985053
-1.3259730631984072,-2.075636817426742,-0.8368937179637526,-0.14590673571628573,0.5185331482769305,0.9695573606054457,0.09675884730057523,1.0863585229755477
1.4854992506101483,0.5821509460410782,-0.6567014926758934,1.0140907591172932,0.7565103853348666,-2.125017847505113,-1.579780949105123,1.1333239951571128
0.6509630721702848,1.0937166136937906,0.19760236255674465,-0.9978456393619357,0.29501172712830076,0.887918696255925,-0.14506150605702475,-0.11940091739392973
-0.9631066625323448,-0.40152422782865727,-0.9374332868417891,-1.064928048995379,1.4363888612969427,1.021936698237096,0.6323095244164637,-0.5477566832077788
-0.7265327258938181,0.10975532895707812,0.21731706396470982,-0.32778188898734345,-0.5923080797215962,-0.8395886725426062,0.49704330155620874,0.7593888403155216
-0.5708419432803425,2.714417601141271,0.6650721093542581,1.0629090990863406,0.6456605861803442,-0.4314524156941313,0.3371448750532607,-0.7918770366459343
0.22322435672552615,-0.23500397983330876,-1.4105906257666447,-0.9671811338218563,-0.5261387290590598,-0.8566957073637453,1.1763012368955692,0.3357328152084285
-0.9322192380586719,0.47755699629862436,-0.1564956124034903,1.1155482748554753,0.05009540864669311,1.3031893136770318,0.0834174528849558,-0.7677508157436783
-0.7517797007495074,-2.05639605230837,0.14967250251245773,-1.1174332049433198,-0.7926639187764551,-0.6809854407972775,0.26659758696160124,-0.521091558353256
-1.1528334823693551,-0.19415477184125718,1.463183114940584,-1.5777193779340786,-0.279336260645662,-0.2537061331902255,-1.0583154884549681,0.7764754657757879
0.6363735586809458,1.618051637789998,1.5560847621010139,1.0543083166154852,-0.3478132225962129,1.4233542094864353,0.06088461711894848,-1.3791413790585212
-0.5354486506345745,-0.8048974391541572,0.08263609957960648,-0.655823306338996,0.6272014418166654,1.2366038472205094,0.563095730674899,0.8128909667181421
-1.197442529187316,0.8755038656750496,-1.20786821971894,0.6279749763428828,-0.9326166642611136,-0.20586395250493927,-0.46706886497205474,-0.08227030042605077
-1.3246748283108298,0.7451213562780423,1.8449907570442088,-0.43021857419947146,0.02748043125638081,1.0172664189159912,-0.6819208350506192,-0.7568656446089213
0.06769766500549597,-1.2853043206939405,-1.1699829131208324,1.3551660311673928,-0.9522803879693572,0.5069554786385057,-0.3787530141899244,0.14921895139566949
-0.33597513105610544,0.007844293235294056,-0.6691185397842933,-0.7582938945887326,0.8224977987270542,0.6929127577592472,0.9173018305899238,0.777495979135247
0.8422443116656416,-1.6396468217222693,0.7134897576348092,1.7904690611234495,0.7817371575402053,-1.0120279014837588,0.17575154186978711,0.6827564781446278
0.5389845452282465,-0.47586970728359657,0.1645476250878085,-0.8055369732971009,-1.5047945728923238,-1.1133910317964277,-0.23636724043839694,1.6481051885792288
0.23923298797904122,-0.07312650514105969,0.15695613894519717,0.07551156519888948,0.8123835196944719,-1.0299601572974864,1.2648920812036524,-0.022370778625185175
-0.10859020643469455,1.177019713995217,0.5630058792262937,0.8691235609542735,0.28547222973390984,-1.1406594496528824,0.3319769593303857,-2.332005083704688
0.6781732467670725,1.1521147983145839,-0.6282919569041734,-0.5228965266913735,0.8439866312509904,0.41999193602600965,0.32476193499097894,-0.5707069454593141
0.9139339570571492,0.523129147181526,1.1059996094610947,-0.36541028633486283,0.8184788426636144,-0.19422742191334244,2.3810365873659802,-0.2293331365677635
0.5657415434178851,1.2705443575293294,-0.06234011801569914,-0.5578863983858067,0.9424185910392117,2.205193137138679,-0.014583586059138173,-0.3157301132235927
0.2011604038036605,-0.10647756953370337,0.33668017011652773,-0.451583646426455,-0.9961726720600057,-0.8338386390066589,1.614227722558316,0.26262254969715965
-0.7228539419361106,-1.1272023888954177,0.29035611997618027,0.3886728535880655,-0.08341421582392067,-2.3784315042185384,-0.521941591039466,0.298652253211601
-0.6204145129936582,-0.043148083439941184,0.45654298125980064,-0.4899621627827751,-0.3580998825232672,1.3249126909586635,-1.1444183581195202,-1.3320745872139412
-0.9192814573724454,1.216984824505586,2.769564488258879,-0.9635839836733282,0.7532952692972456,0.752727030602915,0.5753526528677141,1.682278190725627
-0.8139368700366814,-0.7592646216623016,0.9072522395933895,1.2494471769966715,1.023825815736555,2.309127330366777,-0.4064675726402808,0.5782117546057995
0.43981964022497355,-2.071434784495483,0.21515961953132295,-0.061527012568735634,0.6245365168207285,0.48744876282822835,-0.21413399611482614,0.22509846011246007
-0.5382918729624088,-0.250950400689332,-0.32259893510557897,0.6314646268357648,-0.14394634153835606,0.5259951078369959,0.24706625806885588,-2.0555421042857067
0.06305583573965007,-0.7423569528449773,-0.805711668661427,-0.8145445028518016,1.51925477252058,-0.6032166479153019,1.1947927040362805,-1.970006627214155
-0.16073874865731702,-2.213703949559214,1.6910519343287573,-0.9739643736967664,2.337062824446915,0.16094144482225403,1.1954932182761542,-0.27679460621007873
-1.3683025505269617,-1.808438592466491,1.0321848587319182,0.8065651221715625,0.8165624778700404,-0.07014756020831521,-1.6438047884272147,-0.4784027093878086
0.4948081139772504,0.49246504549734055,0.09617917375972053,-3.038384389650062,-1.638142573119958,-0.007708027847436871,-1.4873838731715072,0.3109033566832369
0.22144102319610404,0.7902290327472412,-1.8447301185991816,0.4756941833319892,0.05516076044232673,0.13215140545823678,0.8410830022378563,0.25341586404233846
-0.18578807827713642,0.45432342312229335,0.7718869892731621,-0.5662707186913786,-0.4202015874564009,-1.2481955434466045,-0.7466625089974638,-0.41924313188277135
0.2796884123819737,-1.056222601655059,0.13447684632306242,0.562753909678987,0.7456100543376771,-0.9555331200478261,0.1680544609725457,-0.40174852365668107
0.6090641892654964,0.3989081374853594,0.21698143050771485,-0.3792480199305034,-0.5774113403437944,0.08420600886865098,0.16453923162271625,-2.84431006159076
-2.926093918564756,0.3997206309515493,0.24655659197137456,-0.3965195079132877,-1.1671262269760407,-1.6259559683774674,-0.14595392901591678,-0.4912744386728638
-2.4488468851870904,1.9930753026240238,0.10816056326089014,0.0983056098781196,0.5296489558013506,0.1468763937048617,0.331612044112567,0.7445991238535771
-1.7955483372814045,1.3816506497100063,-1.8319994323814095,0.13659600963253787,-0.7151729842161691,0.10077276466507976,1.216819208647857,0.06349380333986275
-2.311604435995461,-0.48721032806118336,2.17556851305867,-1.4351333305392453,0.8600732745071837,0.34965781956990505,0.9948692086848281,-1.6406614294549313
0.7212948414807114,-2.0382948817141884,1.2830318952484612,-0.2833496418591116,1.844457839014277,0.3231095000558954,1.224780252239378,-1.2126948601192267
-0.41102288467834525,0.0068993229662513336,0.7529787508910927,0.022928534297806776,1.4570629147095013,-0.3504290342798358,-1.9773028721983243,0.3103107402551
-0.6426898027037703,0.2384152884173684,-0.552990230193089,-0.10522109141904545,-0.18827931184943217,-1.097002018756994,-0.2821073033036391,-0.6343490310013012
0.7942628847748974,-0.23239063527391893,0.19267949419936423,1.7370780883198411,0.5252968991515548,0.8766757063382038,1.5551368981858003,1.6631551004247889
-1.3244715855162064,-0.03110854760138171,-0.6727333520025021,-0.38096731630478575,-2.676835986468824,0.860284594550053,-1.1955505312728252,0.49262902271201553
0.9524686023442762,-0.6867916997785055,-0.3023876812867295,-0.43536875054531443,-0.48222629733311373,0.4078443686220791,-0.21079961110919015,-1.232500887599976
0.7847433945253091,-0.42637640075381017,1.2389849404899473,-2.0120725505836274,2.8382133956402815,0.343975503425765,1.5877358492869422,1.0972650602609486
-1.9692012662293494,-0.056569940299368945,0.10160428994774812,2.235385761214059,-0.909016607491404,0.03613339130503513,-0.033265474156628956,0.43779203670979544
0.4335783365097909,0.8101585241036836,0.5379788741393866,1.2190923982358421,-0.5841576452581101,-0.012376048880469271,0.36221672251579395,0.6805632294349611
-0.17472814970920783,-0.1950181178865412,-1.6946769780120283,-0.9908461828214021,-1.5204748554728367,-0.21279850867693725,1.0209739008105987,-1.2303535892218032
-0.7295102536127539,0.5126071695907306,-1.629986496569921,-2.133447519903892,-0.40670668139499727,0.4942935601353869,0.07797354189848417,1.179896883682789
0.6968117808985315,0.21092674832755426,1.0222130888218472,0.5216920740851058,0.11397253324483926,1.4942396119677033,-1.0650761677143905,-0.5387439402547239
0.9924333624161299,-0.21900882802227573,-1.7632462119711412,0.6543145466108944,-1.1237033231058924,1.2685780337960437,0.3992738834864673,1.2588187883609758
1.0080769029674692,-0.4144803037717638,0.19061674064845077,1.709939665881994,1.0874685401884587,-0.5917584227535508,0.5113399188075914,-1.0001216868756504
-0.7644330004108264,0.3571511063090594,0.18926894938298824,0.7522692096771963,-0.735519564611928,0.8748310031744871,0.2638865300000064,1.2791491652510085
0.9845382291387799,-0.6094476582448982,-1.1750059022381358,0.28122739498834515,0.5668630920676773,0.24838941487369978,-0.44024749261033846,-0.06345002427329391
0.5391129049903866,-0.7635695695432261,1.0498873427813622,-2.1571052084351363,-0.39170808703012994,-0.3435199669511357,0.24488072198948987,0.010131659006044333
-2.6160271083297792,-0.68567260397349,-1.5142504507586358,-2.087077801710835,-0.7257639609221442,-2.2395473478470613,0.6795817058114493,-0.09349598428600316
1.493861986716811,1.0081598859102197,-0.11559756306118713,-0.603162633419788,0.35292978674724484,-1.2990650509200168,-0.06298597609185733,3.489202408562688
1.9824340315516253,0.2537971156618632,-0.034422863772521926,0.731893236796269,-1.7672965165019376,0.22681711772872667,1.058231416509059,-0.24565838152316802
0.27865679387043013,2.2781217724155716,1.9616713922250875,1.464183911905835,2.1081746525568295,0.6141330132170623,-1.0665799749316303,0.2596280659220111
-0.6277509553406744,1.2695673094001043,0.8452947730920302,-0.8009966700995063,-1.5240499953412938,0.14809396425255011,-0.41971347611847554,-0.9763313249429856
-0.12663622528572263,-1.340195750870609,-0.36188451136190997,-0.06982590069965243,0.07563543779916351,1.3997035366269803,-1.1751841949927206,-0.761344646704892
0.38221234925004555,0.11747656945366781,-1.1432213798451982,-0.6696186462013117,0.05861816693286934,0.7423392994951121,-1.047618903327915,1.5295654033318349
-0.6421167914687761,-0.015044850352526708,1.1796561899951366,0.6301815939434544,2.260627892064863,0.5156836011661354,-0.8518757017729915,0.8079594694730658
-0.006196380337829771,1.0598519802999498,-0.9981230949005866,0.7621648985127033,-0.7926666246810863,0.9645072005194395,2.1478113620955788,-0.9463064058789602
1.2028416898006267,-0.08682508036785731,1.5891320182360271,0.6511826519362242,-0.7949483941205502,2.122606310267169,0.1529858935684242,-1.0711613731258378
-0.38628831282852455,0.7493719184149049,-0.8544828553815531,0.4730083614779801,0.006363064817234587,0.0008518416944068801,0.30225588546603605,1.7478706577617589
-0.32257009700610206,-1.5376534970012883,0.6456737765451802,-0.810871986806502,-1.956124590545759,-1.6030787628371455,0.5168165879599108,-0.8572792160972164
-0.692973819834601,1.8913698729584631,0.32377331474650956,1.1084446913811667,-0.4363240299200915,-0.1499942444208179,0.7002060642839198,0.4216826290137524
-0.3583617379774177,0.27670470781354806,-1.7323035590992746,-0.04071257433920517,-0.20945571759760376,-0.6070420127744878,0.3985419820156512,-1.1901498649813074
-1.150234069904374,0.4980912859614251,1.2646095743608528,-0.9221423108278918,0.2373107973410818,-0.09581982512548558,-0.4858896029010381,0.8672901599079929
-0.8033740161926884,0.7626494529091054,0.04416999097963782,0.2158461888437036,1.1676110795729628,-0.05405350229333585,-0.7653175091380829,0.41948633773911237
0.865340364097675,-0.5741189216916618,2.3194972430787897,-0.41659309743854167,0.055662620164083805,0.2937791732289306,-0.7695567324064956,0.4601709190472806
0.5287037313834823,-0.13816937696564294,-1.0670247634254282,0.10637435309750022,-0.527811024139597,-1.2926426421783856,-1.117546259883962,-0.0034616744704079484
0.9160723062389483,0.15528384012576682,0.42095422938020766,-0.5381756207346324,0.4679021944806107,1.612205082598488,0.2687754242023385,0.15017261580983995
-0.9592949310188615,-1.5905532823857087,-0.24201371165506522,-2.3341025114455514,-0.4769893722929067,2.3491184754962666,-1.371741332596338,0.20860418041364198
-0.7640028761285839,-1.2931207417292048,-0.5393310963143308,-0.563071970315763,-1.7138423153040756,-1.8150332157586007,0.5608593134729887,-1.0133905939962975
-0.06167788630911991,1.1555205339054115,-0.7564076914506983,2.6247857360247395,-0.5626611056708799,0.772120491912352,-0.5513748426952138,1.0305711867563325
-0.19950407239931534,0.9151799557704231,-0.06404674145370928,-0.35553912083886213,0.8609627148891981,-0.8127625882857389,0.6042079490640981,0.8696158165306016
-0.643378081498805,-0.3364796943830594,-0.03872647532821269,-1.0885449171557862,-0.2799221936183021,-0.8363619156241745,-0.973393932684011,-0.9446990186989598
-0.6731660608004822,-0.27107049112976617,-0.4218847904872789,0.2809279018250714,0.5697161120368255,0.24631924149767137,-0.5600165777578112,-2.050670381315352
-1.1477520303868585,-0.42846882634804534,-0.08896798019443143,-0.00655156511060113,-0.48776754781619175,0.21038392934248906,-0.34885280114220896,0.2833902534982908
0.9713713269170106,-0.46021725606960445,-1.1634815837898969,1.6452896922306188,-0.013395462783077867,-1.8697607572913544,0.09569446708941116,1.474276907843402
-0.31568420033722544,-1.3299388067890585,1.17245800692516,-0.7815465669316527,-0.008719775928417042,0.3280533885504489,-0.6180390323288787,0.34315821944609265
0.021140763828658565,1.0457159304321701,-0.21403602965337443,-0.22444554254297416,-0.5143262438848688,-1.158031745252895,-0.4626384512957564,0.47591371507870645
0.5378109206391194,0.7462533181826487,-0.5989678959161423,0.5025917281172338,0.30589196307181604,1.1729457183063847,-0.01937508916317972,-1.3307366131961638
-0.5604912246973436,0.7775329739145821,-0.3162178356919533,-0.8649724236332845,1.2850466969388012,1.2408827693317812,-0.32485005239477077,-0.06579950647399763
0.5117900194402649,1.2857846336512184,1.73334276135965,0.2730315137185489,0.6437552248963868,0.5275911977071155,-1.0645164676287115,0.2391908242015767
-0.1529977821901637,1.4733939737772868,0.1271841129160809,1.0746137496084505,1.620362172016029,0.9451367776070119,-1.3873562447185,-1.253581814938011
1.4373514016312816,-0.15366701362659288,1.1830600669210327,1.2633687108310863,-0.05259191580571259,1.1268644428188106,-0.6981245446194354,-0.4470234987654348
1.4015926380880859,-0.9277063308704124,-0.1398399715658859,-0.6494825227591333,1.1433039106594518,0.17207563026372977,-0.43165988825018226,1.0171936488108664
0.46104320811784777,-1.0699978498914247,-0.4712063658607146,-0.7547974547572479,0.25551571404600654,-0.2226935137554022,0.7038303636175433,-1.2583098676672162
0.5651783774718371,0.866106879903348,-1.4841932623538374,0.6881808061351435,-0.8143488270863523,-0.6416304093869983,1.1287944268298036,-0.30896236618907197
2.280852518291886,0.04177973209475446,1.124885154267808,-0.8796260926787993,-0.976771362583988,-0.10630221528828522,1.3875386301504677,0.08338901868254778
0.4609354829422429,0.4276427257042325,0.545928321940198,1.850295826301496,-0.9148420415506235,0.6278987999934521,1.0743465048629395,-1.1124715945546582
-0.5201597429172863,1.030273396404792,-0.6191134465378331,0.8805576733402704,0.04515832910760641,0.7191745948371059,-2.0952823286355735,-1.379887240990128
-0.2716534944703891,-0.44929533047846776,-0.6972146732731244,-0.18939625938915688,1.2198456308112045,0.20125192927618435,-0.5871193455384727,-0.11780333447786359
-1.5409631765399985,-2.506250442842285,-0.7981913103852416,-1.8182731202988192,1.1578835141208041,-0.7433034611591891,0.959518684689624,0.9393259095567815
-0.5967330575349205,-0.9977089452451651,-0.6122472860079297,-1.099710361054179,-0.7259631661595796,-1.6011238440139568,0.5060645999325257,0.088324463736288
-1.6622598074736836,-2.8260953183293966,0.3296673927454427,-1.6759050066256735,-1.5731559222664633,0.1590555982590148,0.5366173460300345,-1.2044269709139324
-0.2220473717572096,1.4351207492762288,2.0746945701225084,1.145160880302292,0.9927808070378177,0.7699999803919471,1.1732214574653395,0.10112352970776528
-0.23395006494097118,-0.017409156260420288,1.380932135756234,-0.4893438804545124,-0.30911479896560806,0.40342676198055805,-0.7611224814766192,-1.1815022410591423
0.5193157527035502,-0.670586469850557,0.05122553461686583,1.6915683154244991,1.0978284817873754,0.4918273817815743,0.017853403120507757,1.190200891659299
-0.4520266357436311,-0.6282211870152111,-1.7695373473910365,-1.1369091875968973,0.5831046135828722,1.0243543887058992,1.0474222563075821,-0.530056142677137
0.6663678950304724,1.3010638158915995,0.16726161155003336,1.8217889565914624,1.2356616473978697,0.1411256630369966,-1.1987664348169007,0.6428090895418496
-0.5462640130283978,-0.03219163032584121,-1.0126213177277705,0.94000151499369,-0.48090642928671296,-0.5491741438919336,1.4735346142592058,0.011138224969825073
1.2722174489224574,0.26506125354977356,1.5777269869577937,1.6162483648990167,-0.5557446148910375,0.38534236223080626,1.861333770152612,-1.0991941465443575
-1.0817463837014893,0.48256537148364176,-0.13160477022778586,1.3526037505803463,0.5531150678297495,0.24532322007373683,0.24059908289452125,-0.6648081135553622
0.6862040152750011,-1.3998952123566846,0.3272292798576907,-2.050863272980941,0.18890460398827308,0.6066480496136494,0.6294888494867792,0.6076262449811041
-0.5992617445056859,-1.7301102043658787,-0.12248911332374525,2.0083127330155133,0.5426602377434413,0.40512295977414425,-1.277958436798158,-0.06425736082279272
-0.7642959212625131,-1.761402172297747,0.5201612265450158,0.36190867249016306,0.26692826051071766,0.5799780019026642,1.1800276132113827,-1.769393803716682
0.5107008495854793,-0.3605196224651704,-1.2263039896506531,-0.0052438247849439686,-0.3239458836789881,-0.3970038387061308,-0.3740017282008143,1.0953053171085023
1.196686782123251,-1.7265407494998875,0.737077151875453,-0.9404282652524333,1.3316800928180377,0.4925064969811275,-0.7331312102202462,1.2730570344582415
1.3608148400609648,-0.6508431666119069,-1.4890225860809412,-1.4890791448809162,-0.5357659222232746,-0.043128607022734564,-0.7991045727754561,0.3315550724960888
1.0398243766145905,-1.405275053217965,0.5889532800453933,-0.22767879543882572,0.30410668842503413,-0.2611915881268665,-1.9579262305640626,2.1430135273098956
-1.7821307619695779,0.06637517027689623,-1.0524250136384095,-2.0033380760295776,-2.7239927645791657,0.7139226050218515,-0.593664178945842,-0.25745164208670007
-2.1594411284261077,1.249325094756807,-0.8450511243423151,-0.43314113089250694,0.34867078599687695,1.2846818414637546,0.9211917412472286,-0.2652930176108429
-0.2411879854012264,-0.8985301394156723,-1.313847549745592,0.07536904701049746,1.035988685773644,0.1875935511013246,3.0091110920158886,-0.45289082888376514
-0.36317709360059675,-1.030395323469146,1.1252492219438008,-0.6657608468177006,0.32027869818762583,0.03931581742617,1.112822681541099,0.8354136706084039
-1.3051796548409589,-0.9801179478308747,-0.7326609758403743,-0.46514277891796996,-0.11199414134197841,0.8467188545471301,-0.09470153805211784,0.16008880298521042
0.8725021607265121,0.06331706608876794,0.7172445802517455,-0.13147471432610544,1.8372397675249224,0.3454635368741754,2.000896846575602,0.5341344024692227
0.9064452133067021,0.46174320909170374,-0.36377312550339214,-2.5367659113959182,0.5077983552474512,-1.086133827509806,-0.7642283180465533,-0.14931521229495193
1.2550280633249056,1.8348162732871736,-0.36358850213795,-0.033299396981554284,-1.0001215089893074,0.8995816650197322,0.05557147388989071,-1.1257442219131315
-0.2510350469939125,-0.3032290481159628,-0.28837996084269124,0.47834241614134043,0.25422538289030666,-0.7661266302070577,1.5851774194920352,1.4520113446212615
2.253177448312814,-1.762452123166055,-0.37581168743262533,0.19972466247881146,-0.22451684648096468,-1.8816393636052744,-1.0353985277328148,-1.653058822659679
-0.4267371042234103,2.3949958239307625,1.5523078058756645,-1.6354522510491445,-1.072594846480429,-0.683207375492928,0.02867986931897665,0.6446778143117974
0.40064869656960383,1.3364524824205946,1.856345692168116,0.4175119383979112,1.3030594592860418,-0.13993781439581993,-1.0164040606085674,-0.7523768864920445
0.88058716558758,-0.036278241150038755,-0.1024524870011726,-0.8035294022230153,0.19942895445281306,-0.3331114165479031,2.244105613292925,0.1498690478208219
0.012122792390430471,0.6156686692928498,-0.2889532630743299,-1.0975389642380708,0.7224539524902714,0.49020746382425573,0.005810477600805115,-1.6422973990200345
0.7836228358190188,0.6120089697188981,-1.908228140925163,-0.438813088140395,0.4451445731999912,2.4550170724861933,-0.2779236388725,-0.9961653291087423
-2.1856597689299586,0.5011145511231491,-1.4937354632494422,1.3369620242195077,-0.2356016652725354,0.4439389151446113,1.8534259720769422,-0.21565152111585512
-0.9074608128524531,-0.8266695400401467,1.5574270488439412,-2.066227737315358,1.034876093532858,1.0654661188361925,-1.0507079797275771,-1.0349992594162278
0.18049332509836996,-0.7944316006061122,-0.5093470708934575,0.38153227816109,1.6593793321481844,-1.137351239224048,1.5854790210742797,0.5050795702777933
3.4634847394806014,-1.066853530989611,-1.3178615310380657,1.2826981050516824,-0.1436953910055994,-0.33260910090241746,0.675013762734326,1.8998262457543948
0.20445582379898555,0.7643400283742949,0.3251157971336987,-0.8691095121054042,-1.4227574523331274,-0.08577159961409969,-0.49462534919066603,-0.9435042227443947
0.1566921698355225,0.02092616259517705,-0.17483478230631774,0.33885377433467156,1.1082525553399067,1.4756461234399805,0.2998744939658542,2.4277969358417435
2.137645050214202,-0.09352944878828165,2.782142552724914,0.6539800621122958,-0.07318955522751587,0.07917729368835111,-0.9938446487499796,0.03442257176490967
1.2997873295723295,1.807447140447591,-0.913193134331862,-0.15875808800025468,-1.2612059354752545,-0.34674279416586995,-0.044905369766621864,0.3121477192493733
0.1938774359915746,-0.1642111858676043,0.4924365646361994,0.14205503886583115,-0.7441533205517022,-0.9494367841363267,-0.7633623229971874,-0.04317758005202766
-0.08353909861997115,0.3321857212776147,0.030676907230394786,-0.9929510365919716,0.01998736715040826,0.5013373856194768,-0.19440274542323133,-0.6722614671032741
-0.5866679565782927,-0.1886875693344727,-0.6220761452774247,-0.7122280884953494,-0.21764307731720994,-0.7048135328026318,0.08156376823090924,-0.3442914969442426
0.1452543402672545,-0.1299293456892069,1.3478648134807805,-1.175246711583039,2.1180486045534024,-0.11941142220775053,-0.8855376205967949,1.2952908179687912
1.0109574130926589,0.6239377922693703,-0.8715382800632744,0.11426375984151299,-0.3866920774762678,-0.37607020902692906,0.9322583950686815,0.13448402453659186
-0.4439256885999315,-0.9152975114615479,0.19441161629599082,-0.1121294637441614,1.450290743322763,-2.279457388845013,1.0978806561832106,1.9763251022816846
-0.23025009587967693,1.7180444255298641,-1.2516019781473482,-0.43320370832281807,1.546221782705326,0.4993249294131451,1.0720263690358767,0.5588224097689939
0.3702520146857247,-0.9043085488363771,-1.0983112533066608,1.282692995721799,2.027773026678793,-1.412738292566665,0.7115591226613777,0.3724810332208651
-0.9300572591645317,-0.2317784689983885,-1.0499204936494047,-0.20916949017664577,-0.17570771214373582,1.3276619722335958,0.08674892855298606,-1.5847612478517914
-0.07126108496561874,0.7280004733583755,0.11550035573572687,1.0995765598132512,-0.47888204594700845,1.5511924362289042,0.23257836640801025,-0.6529515587281378
1.7284346317005952,0.052699953541901455,-0.5962999969525785,0.8121067343801899,-0.1633039824622213,-0.14033248331237907,1.0180993050980103,-0.3544400485827273
0.5430577627370768,-0.9846660077691062,-0.8551030776128995,1.3643563318252951,0.7799861679506477,1.3192960866141878,-0.1489737956534552,-0.4832632960616971
-0.11235069160195904,0.34269350697410683,1.594781783358688,2.8239263677773763,-0.45082606024494254,0.36096764050988484,0.14066210074566085,-0.9140161918834693
2.11848301061733,0.9197170094359253,0.19039871732769373,-0.9884264206478404,-1.4891225719303771,-1.0263897725811462,-0.286044764118901,0.011886334449469006
-0.05678843358270456,0.013370887748414832,-0.7094155746482437,1.4145405573939396,0.13840982162768004,0.5198087190619293,-2.0251730747307377,0.07156094082075173
-0.9037650897575906,1.99165202295339,0.11102522788895601,-0.18972928016661722,0.7399961749201787,-0.5929803463922335,-1.6740628323830133,1.694826552602287
0.6730056300007229,1.2701433870072854,1.9722841445352344,-1.5972070492237942,0.21880626507668616,-1.071570987542807,0.7107334139531817,0.16555530072907282
1.7234495362277316,-0.6435088826261299,-0.4198486895930151,-1.3548312364653832,-1.4563705742944912,-0.04665295643154739,-1.624695749753827,1.090377841131648
-0.13284722065982213,-0.5869028458906971,-0.5154698532193454,0.05928696928557502,0.6145123939890234,2.270502252073904,1.3078079046803004,0.881602408957511
-0.4428212351549651,0.8428220224131094,0.1596612791122268,0.430900658403476,0.32442950961675854,-0.40762339427460503,-0.06674937466536635,-0.7395845170086851
1.6084110069606115,-2.3761730490501076,1.177878285696675,0.35803227410790267,0.3092726593021612,0.02910175026615974,0.6789325802500591,-0.4857284525846834
-0.20061529060122932,0.9698981699260224,-0.463232213716934,-1.3134188905812199,-1.693326287572587,0.5446021552196375,0.3280949694543519,0.7623059993342592
-0.30283745560639347,-1.329765406209686,0.5811879821657223,-0.46068405329105516,2.307851558273579,0.6088781521487976,-0.7702826354781064,0.13823597117123834
1.43899985157657,-0.4822117708857157,0.7208284012737166,-1.5159470096622718,1.675288794484257,0.13912566295025794,-0.3560918511061887,-0.46933894634682405
2.5669525113054164,-0.3161402396288023,-0.07340708616180588,0.7333975045315443,-0.5481489108484309,-0.5348809088944694,-0.5245521090178311,0.2165189640245926
1.5809103984992046,0.9535298216938676,0.5286507336990665,-0.64222166005037,-0.932882095816216,0.77300919655242,0.214901187559338,-0.6320373395574055
-1.0407607352811845,1.180088613884829,0.7438972923853584,1.3920048950486696,0.49779234568952,0.5516192672181021,0.8408768422310472,1.0132533077048467
-0.07183363380002458,0.6292554090280733,0.9056272465034145,0.9203628753198922,-2.856523839759054,-0.4461608642773451,0.08511714087800697,-0.1817135221050897
-0.1903753454886664,-0.29989015913663625,0.39904857583263725,-0.3954776798025094,-1.2094471749001983,-1.0210809733774746,0.32224885509369344,0.6198315662740005
1.0173389317392483,0.39466446862847027,-0.7999422899061104,0.8363212148317016,-0.17552424261170516,1.3474442602648498,1.0367595561099636,-0.7655682320024346
-0.4794531234490848,1.4821876524137665,-1.0973761384187293,0.8837538052591004,-0.2791524628402763,-0.13686542467814986,-0.7594754885544203,-0.3211515271801755
2.3185055091082285,-0.051279692675954607,-0.4697406979819531,-1.0857717105845164,0.19740993468719495,0.40240540397086105,-0.059797811383458445,0.4738600047712877
-0.49059750225382576,1.1063823446364298,1.107899254403831,-0.7412439484726884,-0.8920218830098872,-0.1307748867359694,0.26840173752228397,0.02602380915690103
-0.7624879229825202,1.5404096828376124,0.01803503776033424,0.45580197562125474,0.6167872119625107,0.02033496526701058,0.9313918038410983,0.9931718494944408
1.3436466874839508,0.6688176161358589,-0.21110626976408425,0.6099564029511471,0.7966414275040297,-1.765321068741443,0.9210966941365839,-0.14218440535605006
1.4980742134245377,-0.7607017659941988,0.04089266767271,0.46747698729597015,1.271982857982972,-1.2736879799148584,-1.254231175858874,-0.5051670766692996
-0.24454635340977104,0.3583885616928683,-1.3361657759400065,-0.03352240443951304,-0.32217581230984504,0.7603578777975665,-0.27034975073479645,-0.9479099356291101
-1.7197170520989657,-0.7913116767699142,-1.2609612036209614,-0.00017105907852466148,0.38094395412364634,-1.0344000955633532,0.4438672751025063,-1.355082587945569
-1.5136215906243946,-1.0513432324827834,0.2776039465240569,-0.4293011481953326,0.013596150723275016,0.471585513101294,-0.8333104523411883,1.005476103035481
0.23634121848068837,-1.0630551446028922,1.5304063923219808,-1.0579009249722091,-1.3549808480852235,1.671182150346838,1.7478853880047949,1.093003222517772
1.4382874350936612,-0.5860328678294646,-0.7561127927484076,-0.9008448182457475,-0.8505503520748865,-0.7792735974477424,-0.487843242172513,0.9105117964848305
-1.3410854480192438,-0.17345903524237186,0.9675038126141496,-0.169505797359659,1.179600085671238,-0.2738524101824568,-0.4043836134165016,0.20025454962250933
0.8205816174791855,0.37451229919762963,-0.019745680977108226,1.7056423265950915,-1.16505392040936,0.1328440650557049,1.8146458991379875,0.5097453338687966
-1.2254425284191217,-0.5502366001357509,-0.9549120508209081,0.038164227691716054,1.0235883873100702,0.40730170137940014,-0.2280746168312952,1.7034451185469366
-0.06261430901928626,-0.2174415546481629,0.6710531669989892,-0.3766406048970927,-0.924479892697576,-0.10840559017067936,-0.7398107043379172,-1.8020137149026578
-0.14473701449413837,-0.248498082463812,-0.4249677358807258,0.49716020459147386,0.08335506560622688,-1.1279418741538287,2.284247229192063,-3.0268930914675813
0.6027636694934584,0.7071494738020405,0.37244666319004205,-0.12327238974877693,0.6174676666357346,-0.5620077078483561,-1.0702823841907108,-0.8322976303645612
-0.2955533990588179,-0.7582334083631572,1.8393657850688354,-1.014570826014811,0.4556898398362643,-0.30190777708711347,0.12829510696826124,0.5793122310670481
-0.27458295274347244,-0.15414374321823587,-1.023194471449207,0.34971042031506105,0.22601510825385598,-0.06446871433946547,1.0980104647337268,-0.41007890995808616
1.5629882201201608,-0.19863667273477192,-0.7167674049293655,2.841682273687048,-2.264382269586674,0.23464309348389675,-0.88525896658334,1.2249583649207405
0.35374481334656965,1.5531908388161029,0.4389847824550186,0.07659810198844436,-1.7166964749528364,0.2654255478669734,-0.14033951721975638,-0.5394723864964783
-0.24559951994269646,1.025621803104834,0.09602051311123182,-1.505206606952601,-0.0028723827093020573,-0.48848742904112286,-0.6373786598109087,-0.2934383324796146
-0.1777485920153894,1.1600552700025017,1.8564398503184978,0.6662137564266994,-0.21684092775841218,1.1158150504785034,0.31938587692523246,-1.834752200362267
-1.2878060021016802,0.049799403905036926,1.5392910527928874,0.04307875008224495,-0.288279002798315,-0.6290926049542491,0.013584398081628934,-0.6567789549871267
-1.6878173420906823,1.5723136141384573,0.08866224691956225,-1.9051878443466335,0.9231647612839022,-0.8068983383429056,-0.3069413141743413,0.6018660102962742
0.6612784449569823,1.2424320127066526,-0.05864717003767119,-0.41499637791910005,-0.3344479704807616,1.537506002967642,-0.5221797185141396,-0.41912765877879093
1.7220628644936609,-0.4676941658718405,-0.3201498232248285,-1.789444804633881,-2.4141057429360457,0.3786022646557891,1.2873962042899603,-0.6787498506449818
1.7173772855943505,-0.41145201167913603,-0.19191319193392067,1.3359540244170818,0.40957407152810493,0.18278021567303365,1.5376934450495148,0.5931143967066348
-1.3864568214593422,-0.12190500946827766,-0.19736711081975014,-0.054601767050075016,-0.7776243774321703,0.05473197423852818,-0.9728113012491801,-1.01811426783643
0.3071293990311606,1.0546334825575834,-0.23348743404153108,-0.4003636343971999,-0.9707436757408607,1.1771483036511219,0.8161467611919685,0.11465086525389774
1.3206426617619977,-0.22557816199833317,0.32807613993136125,1.217923160477732,1.0780149506754815,0.0780493102479211,-0.3851434518074511,-0.7916559773381002
-0.8054490035019117,0.5762918936545878,-1.2146335659474476,-1.1302109964016602,-0.21679722646071672,0.06421200770463026,-0.5871492083292525,-1.1249404654573152
1.369722059528736,-0.36849612414523625,2.4040211214001856,0.023348866259792243,0.3317792870341157,-1.4085609475205936,-0.6388871517395088,1.124291887630006
2.456578829834709,-2.1460911559634512,-0.36767604119446207,-0.07340800674897481,0.9344644255020149,-0.8681844071996617,-0.8382192966979605,-0.18979832276179295
0.588958058458063,-1.0234833495095603,0.36051634947388134,-1.578202771348856,-1.0817636901888021,-0.49013151403518507,0.8754685790368393,-0.32469897024048017
-0.7263441224184503,0.0464694665760098,-0.5457505794069096,2.425881013476512,1.0441535453681483,0.6063630858272319,-0.18869234425039197,0.03476546014589653
-0.6262376107943445,0.029967145724066686,-0.3366526554586427,-1.133438925088365,0.5007986114868814,0.49011169425787965,-1.3076016561528316,1.7971556525048915
-0.020310702500246622,0.6848744418166445,-1.6368920326389318,0.8485692439584371,0.7188665857448646,-0.7362403655136895,1.1522086440480945,0.28785919377155594
-0.663955904584384,-0.36828391630961316,1.3479432658908277,0.7618124137240656,1.0508932410366305,-0.08601731700056359,-1.2966999781355122,-0.377211186627794
-0.06491059975728032,-0.38332076692162537,-1.617047378894749,-0.0814207386535106,0.7579955963732655,-0.3694771679811421,-0.2557870984865416,-0.6591100140116173
-0.8994708823839538,-0.31515282285280416,-0.06543277791380306,0.1995853040570587,-1.4959714820843968,0.623353045762343,-1.0420541979933904,1.8585944429994086
-1.1211488956205269,1.185592436111894,0.5004136814765795,-1.4668636689747536,-0.39340706445711393,-0.961257996178173,1.3542074242213968,-1.4686834552558043
-0.8854346717969194,1.1606791329211312,-0.9278944552450383,2.123187520044846,1.7784686100171518,0.09317334516232298,0.6021786401506765,1.7165282982748524
-0.36326887610517516,1.7289586632213554,-0.17180850257617372,-0.8176880641929188,-2.2398743238731846,-0.590955677411095,0.05433294878963054,-0.49179060305004163
-1.156172055698982,-0.3451607522466452,-0.9793856075191055,0.5699811913901928,2.8631961196949676,-0.32075151650639355,0.41096781967576007,-1.2082569450439586
-1.9862418385109868,0.2634790824557145,-0.4848711817087482,-0.05113267071054488,-0.5141956102883857,3.1614268061154807,0.15147562056548164,-2.0644552135481686
-0.037714242388464776,-0.09848610740194565,-1.0234483017992309,1.1338281741260656,1.37108577068475,0.14892099121989322,-1.4239824289837593,0.8406011786139268
-1.95828882254117,0.49316984953431964,0.0318406484787156,1.0764243430701885,-0.511856335651614,1.3603408785541478,0.4420709749901919,0.1361546513228335
0.7268419235511477,0.1205031025794436,0.5141326794833428,-0.958287105160541,0.40987483136229014,1.0610836301753803,-0.311222295849003,-1.9087705935971748
-0.06343010505435044,-0.5133538217172053,-0.5682901317915984,0.3623363449769684,-2.51483875199931,-1.0762117559496376,0.7710116268144676,-0.9445802983927389
-0.6016928161535111,0.4244163633514004,-0.6993089802723848,-0.5852570650073146,-1.0333965928815303,-1.6355646250106377,0.6651110677716839,2.2908786440909097
0.05924276120582342,1.5291201154546354,0.04286426034084476,0.8714617996730953,0.1248434769777367,1.6938108618708032,-0.974838106030224,-0.40864657971265494
-0.047379115512895226,0.5492108612948691,-1.8041200330958753,-2.455289395612802,0.2577901358009888,-1.3584135148301293,-0.2776018189728672,-1.0198111068915132
-1.5032049297188377,0.7131107677003975,-0.8298958389572915,0.5920312579031103,1.7120944665707,0.0020141229327133568,0.5991799908368366,-0.15676095627406142
0.7460887790382464,-0.3077328313740892,0.2729492373561198,0.7037779257641132,-0.7838183484134694,0.39316777311211476,1.366852411511774,-1.2382263384290504
2.4479855733999782,-1.455585436957116,-0.5562963349874721,1.7265612102128516,-0.09740077080871881,0.361856291364388,-0.8859018984111181,1.2800629149899736
0.3375729082907599,1.004359306230196,0.07177111740261416,2.0834002242498393,0.8223488056354767,-0.5890906982679593,0.5246003899169437,-0.5318439891416311
-0.16038924383958977,1.183237478798381,0.3488553951551008,0.7292354754895028,0.7471528135977921,1.9463578799720749,2.271104114497477,-0.6079724204037127
0.822827287978294,0.01773078733080631,-2.7592165047453396,-0.5180258159446864,0.09564326298630313,-2.6390065350568546,0.3295366147589405,1.0046652782402121
-1.8110656072358344,1.4061039965192765,0.040059041714738286,0.36867744146950354,0.1582002794337926,0.5154499466891246,0.12526164258412253,-1.5630656624789767
-0.47558551659480214,-0.40959105240905025,0.41861678943412184,1.0538026400015041,-0.38123331603475896,1.9266830218051911,0.959596608106534,0.002559872769847611
0.43641104499728806,-1.3985815942918933,-1.0175027058159531,-0.6636001941248355,-1.1730086329733531,1.0820132504960258,2.0742506877371065,0.4621190826552098
-0.4615114449360972,1.4584057507598183,-1.2089213489264434,-0.09841760466876866,-0.5347769099796859,-1.3787151505218644,-1.2454228100862685,0.14748213549489825
1.1608906293450758,1.4582419539288725,-0.046776855124230486,0.9819977980611809,-0.3338966683389479,-0.026786341496016112,1.6816482087139402,0.1623440955009324
-2.1740667002265908,-1.0525233346236094,0.8262191807213898,-0.8112391105518334,-0.370824472949203,0.8875295096825002,1.6798326026449768,-0.6755291005897947
0.7935125290582479,0.07047017585110156,0.41436858014005773,-1.8488215671941537,1.207625949577451,-1.4041712616251296,0.12427274661550257,-1.6033513658191816
-0.4436056335108635,1.4064458503917148,1.8386999905855914,0.6321808604968172,-0.41136251957389064,-1.1607933628049245,-0.7188975191072244,0.46471901747747363
-0.538295599332051,0.3412711911133291,0.4285144486149304,0.27520612775321446,0.8525214556746438,0.6120880898578911,-0.9664921037862904,-0.48093066426628406
-1.5720366085919713,0.29584530574161166,-0.5482698233469099,-0.9919263916587311,-0.27944829372699004,-0.22482425123498723,-0.6125011967997738,0.20526058997224222
0.06904036510649553,-1.6055827560612763,-0.20911601350442746,0.24334583649416267,-0.7463757132663843,-0.377580615373158,-1.3950983031171718,-1.8754464743320451
1.7439421923928,0.16816207864546084,-1.0588646440133498,-0.41320965630741185,-0.15832339790048672,-1.6695931900434473,0.5680578375560354,-1.445547641588899
-0.3018799282529828,1.0704889405888134,0.026534023379417987,0.7498720759158425,-1.3345915159747668,0.11786098068455225,0.13957923010786133,1.6895407070697683
-1.4447563302725221,-2.411024630188578,1.2724952984745275,0.8354834371945922,0.48249419744616706,0.8517926165999049,0.9630186489406227,-1.0903981663749036
1.8725707520789248,-0.014764879318089839,0.9621012487235048,1.3391484403857268,0.1957182098478326,-0.7996493539131906,0.08362248113885999,-1.2215811333971789
1.332753291961619,-1.1631176741800866,-0.49255734059932565,1.5205944584930362,0.2197075285426056,0.4069835326025459,0.9266416886323295,0.14704149790603518
0.5688256814976753,0.22308847901583645,-0.4252617138989389,0.3126730502811884,0.861920916398222,1.5871648192298526,0.22953524546889043,1.2554396238524417
-0.1124116852432001,0.5567091819697741,-0.4053036622594827,-0.19607534018986622,1.0832563992740578,0.4742721096309924,0.2142792691019275,-0.41552100171128104
1.4649372929008047,-0.12473676735475094,1.2032520061135756,1.0506968504231993,1.1943390745471847,1.2491429278265602,-0.2559185581870729,-0.17296375348145504
0.8440679711506429,0.046849813417713534,-0.6858336363644387,1.3145487786779813,-1.2625338543884301,0.2914566883241096,-0.3458622166223532,-0.22234127413950733
-0.4099139789707139,1.0917381658681962,-0.6807138087997062,-0.13799724225717527,-0.8433312725731203,-0.9305501038777172,-0.9552251407169372,0.032701162990849394
-1.1909730936999081,-0.9403667205980791,1.0005951617588975,0.13090024079308374,-0.23471583512078434,-2.0179387287433017,-0.019126267791199095,-1.3722999245987366
0.5886309989810453,0.23725978152203292,1.1456470807021464,0.08125055096015844,1.3655617950540984,-0.8051397844931208,-0.3490863885335975,-0.10817358812691459
-0.6866197851769631,2.2796134253992157,0.9208454345090835,-0.6479022810866653,-0.05912322692356844,0.995540246450728,0.1746924270753839,-0.229952762500771
2.7801685983482196,1.8464908722936992,0.738621978641521,0.27149494410152286,-0.7478096347780032,-1.2049902243995085,-0.7656758389536734,0.26654882409677616
-1.0954994033216745,1.1115053327458542,-0.9221118706733716,-0.9350283630273201,-0.6390424957581329,-0.6923857438925549,0.5951551889001429,-1.3450321513892032
0.3597238525784982,0.6888761565968412,0.20362333441461822,-1.1447774459356912,0.6552007568405704,1.0824247417152049,-0.5413918479612906,-1.7734970687207317
1.0500091606953075,0.3536585010274107,-0.48385185292450555,-0.895000064165144,-0.3854518539019374,-0.16218635126628192,1.2124468738411687,-1.1748535810845757
0.9092334699979344,-0.07907525586798062,-1.0446941671699816,-0.6706450579299295,0.27102584403495833,1.0845886652039975,1.1717772282800387,-0.4789752102246699
0.340565810922905,-0.30043857286900355,-1.1107681113728498,-2.0685733802577673,1.4330259152661138,-0.10940701158405258,0.9025587647952786,-0.9514552579591488
0.5654020349483461,-0.08840616407702014,-0.9299746691050985,-0.24075544347145064,-0.5311797195135801,-0.004623667192272078,0.7895505974830693,1.0293494545477608
0.1318269817910737,-1.2653685459923714,-1.0211733335541904,2.102564897870499,-1.2836281316675004,0.6010005288482562,-0.771266196130722,0.06655304844389899
3.119203955701374,1.3066359954631301,-1.2463446345205584,1.7109469879092767,-0.4685899010477161,0.7431718713777645,-1.3826385885805395,1.0127955832092974
1.4756552473203812,1.0546770076512122,-0.4202228047252818,1.4913863191565426,-1.1159255214848802,-1.0381774499464627,-0.009588379084772381,2.1122935707014396
1.639998098098602,-0.9981066714175924,-0.9516357742367647,-0.015900772042276388,0.22049378910371875,-1.5559837798661584,-1.589680041591776,0.4983758500953281
-1.0693170536971814,-1.1405895102158161,-0.9517510820113247,0.5156048290134853,-0.8513760870491679,-1.0787862612600563,0.631065756148012,-0.14777894214887227
0.9647320752419899,0.12973376713990245,0.5424183621026106,-1.0273591273233595,0.5028697532826473,-0.675531591435416,-0.34978802066530257,0.8576134100854303
-0.5585088387897597,-0.3280182277223897,0.005589710605851663,0.8328377237643549,-1.431051956832746,1.3956587211307963,0.7524492088754031,1.0000096902521416
0.7579371333519561,-0.24648416496135125,-0.5342627324513357,0.2577224616158491,0.8788317930079586,-0.9278355379928539,-0.3012462717932594,-0.5940799549778406
-0.12075649430452609,-0.2396578170672991,-0.23058595990572558,0.09900463925250101,-0.21089525162809233,-1.270578106537266,0.5060332908601277,-2.2150334551080415
-1.047646901031077,0.012720340509359933,-1.5729159578817071,0.2625378614466338,0.032616662066763516,-0.9882645692746316,2.255160252635604,0.611598332596823
-0.2458761473689041,1.9926453482700042,-1.074894914968996,0.27606415259024214,-0.4306288043100809,-0.10584010997006242,0.9795131673886865,0.6231970365706514
-0.9324635359214175,-0.9109534990690599,-0.8391698487741467,0.8301196007737202,0.5791112084955847,1.7093647196863682,0.27424678743400815,-0.06511479440994958
-0.4768324835567956,0.09135239785521243,-0.200935800058531,-0.20082022840888128,1.8151258519348452,-0.3656773371348494,0.35634756320759053,-0.3051377948555122
2.4749989527747434,0.4319247364200585,-1.7699936971286931,-0.04869328244186546,-0.7689046114363615,-0.026774069671673863,1.0868841755123977,0.30851062588034034
0.6452036538412079,-0.14388065006432316,-1.8400922033773623,-1.2610468377725015,1.473133394554133,0.7389823952487993,0.2961561492776001,1.9246222787347278
-0.4309959556747959,-1.3401083966913179,-1.930957446817094,-0.26614089979194594,0.8272017313102693,-0.4395736845467949,1.0385777759855463,0.8897953748793112
-1.2111343553763247,-0.06549397448772253,1.089529901103112,-0.7679785959912216,0.9495954021051857,0.17133516773829816,-0.6626262880312352,-0.4161461601973308
0.8930980775419993,0.5259133514449347,1.9726977046335594,-0.7200291469496376,0.6338370269122061,0.5321948606624891,-1.0547416344013598,-1.9685734750590511
0.42772330885550375,-2.13722702193958,-0.25737162530094093,-1.083958462139925,-0.45697872386439675,-0.494162162070737,0.5806849602451747,-2.0285678973849435
-0.9657213198616195,0.19445294586451903,0.8410870894629091,-0.5348180785583103,-1.1249449806009877,-0.9459600180751099,0.5260235442415839,-0.5386335016650392
-0.4732170679464509,0.21779625246479659,-0.860814365256291,-1.3340892943706875,0.4401780893507054,-0.42702992793836925,0.2037378027401281,0.5787123008072598
-0.17441726862430987,0.9199835448003713,-1.1030020210910865,-0.24995759606609247,-1.071452009867745,1.4398606368227922,0.9366878668955176,-0.6952565055525596
0.7021588106886864,1.3342379170763121,0.16204825938375145,0.6594332772453192,-0.5895081635336767,-0.3241303124347002,0.44199506912344205,-0.5693136376763522
0.36468199649858446,0.675400119990341,0.860756307072305,-0.2027353421909009,1.6554068165030582,-2.0814744339259486,0.6521956068715535,0.4756132388939143
-0.7400206613292702,-0.8065307335072016,0.12736927939462991,-0.37492131075384916,1.2957055327735514,-0.510282796994344,0.3963686318971665,1.6349414272862428
-0.7331282950732835,0.0630546588487074,0.466967098745339,1.1598528726736759,1.8162630635154589,0.38783393704026037,1.1578548538792792,-1.790304265188825
0.42731137484602927,-0.5897911319670255,-1.5797251368540872,0.8987849498896927,0.659711302929879,-0.777807752652291,-0.3041215156418041,-0.12221386043770005
-0.5387196412561018,0.020138095835886067,-0.009864851940597785,1.058421453961648,-0.33926261332413826,0.08042134856901434,-0.09164407459184443,0.1549396171714536
-0.17942700192183872,0.7223962636929239,-1.511848164884322,-0.21124237225973858,-0.9119501770401501,-0.9310664342829501,-1.0044080496239813,0.7738738524445726
-1.3580011523550837,-1.5098436726318272,0.18065911181471297,0.30561140888211774,-0.39409563117079066,0.3090715553298455,-0.7909000222612579,0.06577222283461968
-0.011593818541288626,0.14998575332205788,0.504514146980867,-1.1930699428253326,-0.45158829983490123,0.26824918590735575,-0.1947176465964954,0.5928733654071775
-0.14210378252969924,0.509309199365297,0.8003094911966164,1.4251265976123644,-0.36269828952647487,0.022275834196214532,-1.084838962254409,-0.9779369731427444
-0.8397990211681564,1.4333299246450675,-1.3049587805116674,0.5878638613689825,1.2837076214150962,-0.8580011615600563,-0.3419095316671142,0.9547205004659569
1.464086562744375,0.4128890892759612,-0.3462914087730546,-0.6397613773325035,-0.9316070065861644,-0.27782233536559875,0.040778095763827654,-0.23730713422251312
0.6475838401410636,0.6706915568246243,0.31250710810991505,1.2504762954296145,-0.2103811094656713,-1.6529674103668421,-0.36537726380959556,0.22603551384018267
-2.115361837128592,-1.3781453618041108,-0.015302056505877713,-1.282031339444397,-1.8387847068912253,0.17912856972548197,-0.7544132598796138,-1.2889494298275879
0.795918243606888,-0.298669244652168,0.018878473829568126,1.3105240136566059,0.24543368404308089,-0.22874219767434809,0.06879546478573811,-0.6439148508538981
-0.6389705500946234,0.42186922551306105,0.8019686915557102,0.923394181595259,0.28102346637933473,-1.0196451515072251,0.32560044429877505,-0.4690048460249757
2.236111555854297,-0.8723931184556695,-0.09199104165612197,-0.18164352744548468,-1.3739564254549952,-0.1724635069613656,1.1801492458675074,-1.2213670302989366
-0.7818784647398297,1.6064756590882958,0.29867592994846554,-0.40559468114957964,-0.2767910869635552,-0.7130821726189999,-0.38555533763552124,-0.4723694803319291
-1.997314747770871,1.2244619839338058,-1.6889648781074984,0.6219698338893388,-0.34157732263621315,1.6451094129110826,1.405922611096228,-0.5018034413827767
0.05887517198625801,-0.5608114360460923,-3.7663742051921787,0.6835438976563964,1.1002559825651856,-1.462385481943727,0.5994043928275055,0.9027116532387934
-0.9021425305307661,0.24936991327500405,0.6527098523571815,-0.7552623067687895,0.904706273050135,0.3460220612721435,-0.716825742673408,0.5794955345906613
-0.5831162396228179,-0.28979567476068346,-1.171380976404747,0.2610583025397162,1.0119736342743333,-0.03934759515361874,0.41093614266960293,-0.26691055140417924
0.6400967140133945,0.6232787924244174,0.3245878685148365,-0.37692799424773754,1.9953045625188364,-1.4773928638527085,-0.5190482313901923,0.8025833488211309
0.8195291991491166,0.22793377254640135,0.6831438876897239,-0.8415006912622899,-0.8312634384435528,0.3783777414607794,0.2343890894887719,-0.7190001854849257
0.34283878131411555,1.7541991862823085,0.9227065048014351,-0.05585828546307373,0.6453614858825485,-0.6815077141537619,1.1056428378341823,1.9942661263135752
-0.4731801017821916,0.24939238710897604,0.6717225897457841,-1.4672621918649422,-0.8755138985837524,-0.6537765074834726,1.15988683089815,0.13385185429434987
-0.5757450577040886,0.6564649168856891,0.4261906111960976,-0.4823958222650959,-1.4506221013946523,0.036907955417303864,-0.6016902754138291,-0.6612738720817984
-0.6545695927595855,0.3438352047779474,1.1675766837146266,-0.26970408613847946,-1.1644745270288834,1.296942457675059,-0.6694141710278096,-1.7276790204373258
-0.005867874842220976,0.5024250196908483,-1.6019459417612656,0.9494017338823713,0.802443452861208,1.6753471052057454,2.21254374747915,-1.6671467712000005
-0.5320559307286504,1.014992416951669,1.553999441000134,-2.076255564940479,-0.7310430882584172,0.4154449878369804,-0.20727384924653353,-0.31399121400699537
-0.8534102986669604,0.35146509893091926,-1.0513971939562485,0.6000264186580337,-0.8640687354783989,-1.5888183913988025,-1.3760308744970355,0.6800645096321529
0.2838813659444471,-1.3902818963527852,0.9713223721860726,-0.5050273476441276,-0.6338905358384146,1.5015436096055326,1.174244485900533,-0.8405090647318053
0.6320172176175954,1.3660651159062958,-0.2479916162043981,-0.3853990731268125,-1.0036229384273334,0.21459003176300578,-1.4632082544526444,-0.0013141579636829375
-0.29520593421565183,0.1263985042494669,0.20317595332995994,-0.22245615138200522,-0.05479803667218504,0.4778417729652637,-0.9539390893841837,0.06923311220702874
0.03653526574467826,2.499630557321654,0.39451430851444214,-0.10304769314796595,1.5890923319310815,-0.8255055437955617,-0.3294865663813995,-0.18354038657892724
0.19157261654268987,0.2186668095355797,-0.729127797646213,0.22774136722260901,0.8621774043260125,0.526297043503121,0.2703270180230446,-1.6948811986373138
0.772122092486771,-0.1101676211055515,-1.1295293313215162,-1.104675866428521,-1.7706989328879204,-0.10925303333024107,-1.0026687769122553,0.11017311734332862
-1.5083143453295083,-1.1766228255113491,0.4830526108613189,-0.5274791914862643,0.29307285427045016,-0.8229336809378551,-0.43814089509848564,-0.8101562822594527
0.952619001247523,0.34764032277459694,-1.424989452257886,0.2903888917259745,-0.09486027392323566,-2.277040895895877,-2.7610238119074975,-0.7368441073670459
0.7634204434736783,1.5632754783064686,-0.13423313837279227,0.31631417102353065,2.1710181646413993,1.2330533767250584,1.1234755686425764,0.4489278752332688
0.05707383450073253,1.1392410104020139,0.6367877910894523,-1.4163632862647924,-0.5823837023978617,-1.9946829667442083,0.6105251504777457,0.030221043624203612
0.47186347835891534,-0.7762739204570881,0.13347431834679918,-0.4767226991585354,0.5893670072250744,0.10757989666472201,2.22952022261208,1.0844516421826507
2.450934798593592,-0.8932460266851251,-1.2619042447680449,-0.8725511961214267,0.003475627321358915,-0.13984714202767964,1.8083771801687052,0.3099088533717132
-1.0515443126132953,-0.6717387877222646,0.2803653361597646,0.6456105483371098,-0.915977333378019,-1.194578476377134,-0.05538693486303378,0.3171344411981333
0.14220820891620992,0.6033773478915245,-1.3852719510586855,0.4378986818950741,-0.14640982860509402,0.5662835237219815,-1.2103826487430747,0.3211505749052786
-1.414374088146827,-0.4664748867220609,-0.2568097530830471,-1.5083136326434667,1.1336067807499215,-0.11148347990586349,-0.7737873585502498,-0.12393759275512682
0.4141928409607946,-1.4564905714332401,0.18072278996948887,0.7824000122641988,0.2816405907145833,0.9410344414532131,1.000840293281417,0.13834088121866606
0.6603840165487265,-0.45763682915381765,1.4165470213146694,2.0105248480197666,-0.5806666283708051,-0.5553556097939417,2.047177555048121,1.2785690726114673
-0.5078937783358244,-0.09149064498010157,-1.345985581808918,0.9462356097277759,1.5990702369957084,0.2986371975433207,0.30944592824590444,0.2710562720717997
0.3017703748766389,0.7307425036389782,1.9655912450313777,-0.16675862095385524,0.763363900627481,0.8472632866498034,-1.0617102102601863,-0.11404392868449542
-1.3545796217460742,0.19456833551563515,-1.8674813079815427,0.7283421143578028,-0.10562420022001706,0.40376047298586787,0.05347153800386146,0.17286044384663923
0.6693990067087325,0.6660605336293091,-0.4618855139128114,-1.251132316216565,-1.31379305253749,0.7050307129751886,1.1575165281936821,-0.3668456568667906
-0.09145009430453534,1.469991571513666,-0.36446435315746006,0.34812286982045526,-0.39162493480955146,0.8093555410615095,-0.7904201829613872,0.06611451880653076
0.4043653532948622,-0.9124973888693019,0.6461314915379694,-0.12402332292968639,-0.7949467445973961,0.5841343551497814,1.0383107878802642,-0.83301775400241
3.268696869061174,1.428006924856276,0.1277628403219837,-0.1204110694898628,-0.7220348264752486,-0.756145212488449,-0.47665333802168175,0.020509130524618353
-0.9572984517512187,-0.49031437482903684,0.1517996621114696,-0.9876084578263874,-0.16530016459404223,1.2511343640529569,0.36273973151124655,0.0001479199636416413
2.136912871681784,-1.6485092916540562,0.010112290013941193,-0.5647695811326368,-1.7079046729053953,-2.1308626025844752,0.9834188934494491,-0.9464791247929859
-1.2435778894383962,-1.2530509106977343,-1.8616100480042268,-1.1094087911061268,2.4539028483476804,-0.14847903794216089,-1.1496880623761814,-0.18507725845352002
0.6708141271190381,-1.1349178200551275,-0.6834580121898575,1.6585188067094183,-0.6221118610395269,-0.08225611082830694,-0.9293615997154714,-0.6848152659252769
0.8185924797163218,-0.24320995519672772,-0.49013783414584466,0.7451396748976646,1.0563995124238486,-0.007867568807828889,1.0201111974988086,-0.18509943471119913
-0.7230548508360112,-2.5432977101942593,1.1311055553382878,1.1159747861100466,1.7518270638965343,0.22135783238221188,2.568171382271177,0.4137288001430516
-0.6740199223243369,0.4062451043340508,-0.38573608296066403,1.6515298130371134,-0.390880194161339,0.7201913208397139,-0.5775685644772609,-0.30553968967996326
-1.0777169480457587,-1.763251863483453,-0.6802414040601432,-1.069590219130759,0.5512885565991875,-1.1133613242098648,0.6493050865790875,0.14237581359294652
-1.1240944469280683,-1.6552346212718365,-1.0249926174303026,0.569246724827835,-0.4213727607123403,0.24452237708636684,0.6887483398704671,-0.07211749254826384
0.13914240439590148,-0.9745169257963974,1.556332194782445,0.21515231330563228,1.2641668007397058,-0.8996878771691608,1.3282827631912646,-1.1285503956385012
2.3411105261529026,-1.3224778437779403,1.0789431081536298,1.20236910506501,-2.2026639115160704,0.8569714371756145,-0.9637717505480353,1.4810378072529329
-0.17338693060320326,0.1061616539357612,-0.5304658995655075,-0.6154168373521371,1.9059091588045196,-0.3500230005468791,1.201971615092748,1.0422651944070198
-0.41651839032252624,0.5705344055023979,0.6526769318418496,-0.260105110995419,-1.0042698607624188,-0.5546555815653125,0.9920654390707861,1.1035880651955117
0.7680738646439429,-1.5355663597011058,-0.6653217039315674,-0.06009273245052164,1.577625008260202,0.4837587424256816,0.5250707457899562,-0.279130613587633
0.9459288741061042,0.6841026138242458,0.17057268683408028,-0.244082064280377,0.9035805718311353,-0.8338354508619383,-0.986928882510796,-0.03550771414855601
0.09023341703833149,0.4595353666633453,1.6658200341518012,-1.5391638517461728,-0.08451955056582063,0.41175095642855464,0.8847692843653596,-0.6090435030564472
-1.2495287574667062,-0.029774151377821217,0.9501330086812841,-1.171174988824818,0.31300242947561047,0.24112146882139848,-0.48804797771428077,-0.09442490767727284
0.2990262535404539,0.37895996617641337,-0.005951639833813964,0.7031963279655243,-0.7503015219389948,-0.3215267183861529,0.9098865749419339,0.143164826708802
-0.3480632518702041,-1.1904511010922045,0.11023218887598836,1.0552181478011182,-0.0914724284946542,0.49963740669285667,1.393717708085922,-0.3556327913201543
1.9358479749296056,0.4063012021802893,-0.834291830580379,-1.6389341537876467,-0.6844651284092841,-0.19438535392242343,-1.9309113823454238,-3.711992718567578
-0.7140054038664886,1.6755673662964592,0.0850255674337306,0.27472975428859253,1.1164635817259312,0.699019401017825,-0.6170578685839732,-0.19973294891714474
1.4631957779854534,-0.41054022121319333,1.342647802534527,-2.2626751633304005,0.4905663775089883,-0.9107136419379553,-1.3525670130685024,-0.01656205962711059
0.611706812317893,0.12920994793274457,-0.22699020156478258,-1.3366088614321243,0.16834971453468728,-1.384372899804174,-0.16735588352784214,-0.38805699413095557
-0.18498871615833615,-0.3582931324671079,-0.45730826224370436,1.9826134501220247,-1.0894219747522549,-0.0937943994199144,2.5936650498234592,-0.9906245383263343
-1.3662487109274863,-1.4555742129731204,0.20199898038326528,2.540855377495726,-0.4094209042158809,-0.3667479534331572,0.7817016662650482,1.2136790855048365
0.8495582071174496,-1.0021010984160221,-1.502663481749215,-0.39237656957677053,-0.376579669686814,-0.7808425964041867,0.8723802235088856,-1.2716635454996816
0.06853781819032165,0.7965604389756199,-0.828441411518072,0.13512724027734452,1.74041119723231,-0.32452370095593525,1.1032468553811758,-1.6995002205869443
0.40991064471162497,-0.828538684041685,-0.2098202456340805,-1.61265251977962,0.6368405188327947,-2.0489276531591125,-0.30331525459405345,-0.7550523566070362
-0.6590684314348136,0.6018067100990488,-0.17580799382456674,0.5137410274269765,-0.526070705992447,1.345322532495777,2.389280186478261,-0.3536065107961602
1.9771015513207764,3.303793114936152,-1.3465976485191795,-0.42949046031538185,0.0769001965509042,1.2681793683623916,-0.3765948816393777,-1.05981847353846
-1.0115976582823927,1.1685741568074046,2.004943520429677,1.2172717628099627,1.304689414266917,-0.1505648366466684,-1.0045514143022376,-2.0562535880984365
0.37848194389559403,-0.25374545472453636,-1.241527980475666,-0.15887053950848706,-2.0088682866421106,0.34126265190003024,-0.7174915505218608,-0.7696481974663216
-0.7475129586821047,0.19536512876614898,-1.1625487913633896,-1.1691803790243198,-2.715814869681918,-0.3994398963391021,0.4692129810680436,2.6852945271985793
-0.05200264348604373,-1.4524718646875292,0.8403680744859977,-1.096193817146527,0.5531395201031502,0.3304591794438684,-0.3228574520057499,0.26352635776708805
-0.3490765638466995,-0.17650543300473526,-0.4176804511535264,0.14307961065287803,-0.6214909484664115,1.0388924105889585,1.06610590291828,-0.15084486383133955
0.33691450896599573,0.18853180899179842,1.6320866088025647,-0.2603264288450071,1.8889115753076742,3.1015201395140317,0.17045052951486503,-0.19651264635374238
0.1875845826643586,0.9984576372536209,-1.6865932110730064,0.48506929459399556,-0.7630706077148718,2.173644533995767,0.6366505849365035,-0.3113552072525455
-0.1672222977466924,-0.04015298263478856,0.21830955395307966,-0.6161562839797364,-1.3134072179435567,-0.4741227705303837,-1.7249933685341152,0.17336439884898766
0.053295581406983476,1.5143742670541371,1.0692582908800545,-0.951494387388087,0.09318784781316147,1.1114665980723497,-1.0917364994718144,-0.4353628711681669
1.6280438049408055,0.6915758794560641,1.1226185754283997,1.6890435937531412,-1.839050782608473,-1.6268863881039772,-0.9486005512073641,-0.5786319217433242
-0.4090560357141461,1.6880995923418538,2.76043117609295,-0.36785514178065326,-1.0065166648426567,1.036490486714389,-1.0915475927513731,0.442607250982494
0.534178002707232,0.8489310403908522,-0.9613166921963322,1.0680398813245553,0.08000749490580511,1.1237669521883114,2.1744125767020304,-0.5357412596324328
-0.5520592510985188,-1.7987738195099925,1.526208562119407,1.3736878010163998,0.4711290179886461,0.46794602598270174,0.7685661792065372,0.5624705868889586
-0.4852169087721374,-0.9433499520021629,0.9864530741069973,0.4965763005692079,2.1565388020417813,0.05943932444111023,0.1695047197676114,-1.1631530690390097
0.36885866854179705,-1.9753645518442329,-0.074150721107564,-0.2303230669447691,-0.5923192677497868,0.615272960706783,-0.13805993069809183,-1.0386006066216222
-0.9877821757446786,-1.7624040216534822,-1.4515379509104214,0.015292857899015426,-0.2182561498201588,-0.9889143311678587,-0.09836544375088832,-2.1813905549410038
1.8883108182825266,-0.2987297447389829,0.40422076254638173,0.18370346195194442,0.4876834692140433,-0.18718308406986006,-0.9571945818960407,-0.22215217282358893
-1.0695412005987943,0.22939701343659638,0.4265288303464877,-0.4472731019568461,-0.18131884115705516,-1.1909688502369435,0.18622019569792755,0.5328505318996227
-0.5291970821537537,-0.32663475959056004,0.2911153258112988,-0.9924883946679571,1.079342298004446,0.1801027980896648,0.6679010365952222,0.8786714463669926
2.594380612231272,0.12916426031484635,1.1450490593035798,-1.2730960519798533,0.03962746115830891,-1.7964441818301016,1.0125824882786503,0.03015067190247733
0.4393224892383895,-0.09556034399692606,0.5682574439364055,-0.014529105890874123,0.8923186644122691,1.2202191321089773,0.01961693319412331,0.7823873619929361
-0.6321774001103202,-0.7213617226301301,-0.63244361546128,2.09021704796714,-1.355309578370128,-0.3631916278179796,0.9518375968384865,-0.5691619622479803
-1.7823932917201932,-0.22419434571115326,0.24097321771418792,2.039798808906689,-0.34932763010050283,0.8627034974741601,0.8472558205961088,0.03670560047324314
-2.017813738321629,0.09285713470173555,-0.11668764119854243,-1.4477753332994607,-0.7008421455334148,-0.6390444668493425,-1.3208253020940295,1.3660097605205608
0.8261382962952261,-0.28842423764546493,0.44235360070912255,0.30427819505947523,0.5892710477562486,-0.9564855616502128,0.30922996235211403,0.9087508631905996
1.6200993365300242,0.5912486623673031,1.3036704242004042,-1.5108780973167364,-0.9282771211670005,-1.0616507580636072,1.2656072772993625,0.5267159471494531
-0.37136385724907545,0.4709405751224794,-0.576471242897767,-1.1449464681750499,-1.0954925862079525,0.09165945914336293,-0.9096592740172443,0.8769358397991193
0.005189925171030719,-0.7332196887211458,1.753695162492549,-0.29986954914570874,0.24761152129072664,-0.9357063594353108,0.12104701938755733,1.8455583381699376
-0.355208031877458,-0.0548761629571437,-0.6658203940844559,0.10019041628405097,-1.6332399315588515,-0.31212837278294553,-0.02534687209276803,-0.1017021482036444
-0.35066101736917765,0.5721459184990302,1.2232760047967401,-0.2712468224353803,-0.15828131373412024,-1.2020109125052196,-0.5362475771027104,0.15136094354895058
-0.1925220223916057,0.6996780210018176,-0.7203404312798506,0.05053435364302944,-0.16967794403371797,0.46793580389749045,0.0840986924229164,-0.8496685899046192
-1.2208630486999408,1.4407545919240767,-1.3738074762895949,0.9323745038316895,2.3330690912172627,-0.3865109154845306,-1.4107362461579533,-0.13871012301656127
-1.9745812974547965,-0.7307643752274994,-0.06285736100177104,-1.2193053476683218,-0.18761033827423973,0.8801851085973442,0.7732901571459443,0.4810740032938334
0.7755270541672659,-1.206023498696817,-0.5706570439009132,-0.8432712769618225,-0.046018637296821194,0.35576939348505976,-0.7586294394650472,0.628397729767045
-0.7665585893108655,0.10791520124907233,0.39766844742148416,1.0452619236076064,-0.16181464896303682,0.009043465500431636,-0.8231702002838999,1.357419437718207
-1.2155842076457057,-0.8885987902434613,-0.6680477648717595,0.4800261161698969,1.0622636838327129,0.09485032463439165,-0.18426376876676512,0.27412150805243013
1.0373839637227995,-0.6819600623820486,0.21344417938531937,0.9083375603338393,0.8455424580847795,1.4877344060129685,-0.7516153913555972,-1.1603512066286954
-2.0289696153281818,-0.060780611797398784,0.95728860422667,-0.5795284502430279,1.2475739325595685,-0.21725013693092812,0.342862410814546,-0.1813716026196513
0.12304404280528848,-0.6684127644639755,-1.2217719036446915,-1.3375914486172686,1.168524795829647,0.5611890039345165,1.1827941920117575,0.2799377605827819
0.7857177913262074,-0.5991767418179104,0.21114088723638208,-0.47789605266591717,-0.44937169555661033,0.689270367101854,-0.2671960027128874,-0.29014201139575896
-1.358358447658769,0.9840054868490051,-1.1546181546880108,1.1117097164252177,1.5583139027878123,0.44509796375827937,0.48255770866055653,0.7027433713094925
0.2696006409165556,1.1836390886421735,-0.06809765052625752,-0.42384258194224994,0.0405600180180856,-0.20237380946624878,0.07408551766219351,-1.1704232760169857
0.9896252007643813,0.9571910756867695,1.8028021876309905,0.06994022280487894,1.0017598000902996,-0.5273957482191932,0.6110382573394819,0.6483801229459607
-3.356271510713267,-1.3921191241146111,-0.15775841405326083,-0.9622574276311456,0.27123567109526914,-0.5804176738650495,-0.521196611361789,-0.09235099173337626
-1.0728684784607543,-1.409792949894802,1.5885920369731166,-0.6181945326896653,-1.4932105677491592,2.469667216474515,3.592659551996837,-0.05485403045798434
-1.2590191861142763,-0.447187444401744,-1.735137532453314,-1.060689985172462,-1.5556303892937657,0.598739408414483,-1.7550449782466004,-0.6541074464788224
-0.2932058071324674,0.13771938405413467,0.04087918892831505,2.0999793562984173,0.6148462425046965,-0.953491618394172,-1.1207021192944502,0.5059698412877405
-0.726213213829834,-0.829733121319987,-1.05987872255799,0.013208200167120383,-0.7119515036969262,-0.44899359480134354,-0.07515588615037667,-0.920002486760541
0.24047709698986627,0.5290434705296517,0.5613633777260354,2.1827491181381977,-0.24563051325166446,1.8226536721615982,-0.06369667826828106,-1.1592385273184824
2.3515593419527523,-2.066519336366501,-1.0894273752252985,0.5912529760526358,-0.963558646460617,0.631381827786236,-0.4464950923571815,-0.23030279610576007
-0.5626017500789555,-1.723011310277934,0.4905007995214182,0.2623318254560169,0.5895052736605333,-0.6284304097455135,-0.3348572253188609,0.49689880329177144
-0.2518358399305274,-0.4335239046615798,-0.3548495582307874,-1.7821151682355867,-0.28121468836977054,-0.18955428780692626,-1.1748631012712867,0.4145202772323529
0.15564662353115646,-0.022063151358602495,0.09936202626602156,0.38575070394942174,-0.18888177573651532,-0.7550361407003189,-2.0062941973962136,1.9021837891512823
-0.7895670837914899,0.9751022123537566,0.8318553299498751,0.9491691074451294,-1.377369783281709,-0.7360951784536484,0.8756424655421704,1.4577978172752404
-1.2789016037453522,0.6917997704676098,-1.7893391359498096,-0.3300500554128604,1.2024508073066942,1.2471005535560176,-0.463381427045463,2.0468574068064553
0.21085466584176557,0.9867564227707508,1.1830475049892861,0.300738068291387,0.5079899038311064,0.38426033320874164,0.10652590839858433,1.796203228238992
-1.6182072850729188,1.0108952764448855,-1.3301982389801161,1.5701818579896734,1.4143795129726089,1.0798411324234427,-0.10629006875373177,0.23617390501944713
-0.11984875859647796,0.7526880156609201,-0.05272128888700279,-1.7059076686921602,0.22902333689474513,0.642862397241276,-0.6753204310112211,0.25140858273279715
-1.8416342818107276,0.5441122819106954,-0.08388583841158573,0.0030547058196301203,1.1167842498794995,-0.6534198491093466,0.5476784341231732,0.7903532373710881
-1.7607869865313248,0.9870360287169819,-0.7552743736012751,-0.04277834749704323,-0.9785564930467258,-1.3716586513174227,0.5124236555683317,-0.6208929016466558
-0.03496125514600854,-1.2170290697923265,-0.5175944036937836,-1.4053813616611264,1.1241458229244357,0.4472389612802736,-0.2970692348583855,0.7031886210666147
0.04134181623604254,0.27331166192786877,-0.4608600613149725,-0.02935749748610253,0.9983413383963249,0.21860434097321343,-1.0304219949655118,0.012178635098070883
1.1135637463694663,-1.7532310238235966,-0.6279261009691914,-0.3821508147021215,-1.4102634274623935,2.2122383103022782,-1.1676777148457391,2.3282351611486565
-0.08502001747572549,-0.42843957496569207,-0.5456278332584141,-0.18660868252991963,0.9407296856336572,0.11891458097837096,0.5668297209243451,-0.6568460421876046
0.37891548616373044,1.0205471555726524,1.1484835007733405,-0.21843350703283626,2.2319338696498274,-1.1973212623305525,-0.46456911231998443,-0.9673667867525121
-0.560586941505923,0.7269736373028832,-0.09012048007884133,0.7229198930608944,0.26276133791674133,0.5365809281504765,0.27116283906564914,0.08580974800651141
2.0369719081018993,1.7239213446021833,0.25149890458027047,-0.3437312041782758,-0.8016975847076314,1.0497039172202791,0.9045647543230492,0.4359442600270771
0.05636261787805035,0.9358926039227313,-1.1135499920157905,-1.9116707260557504,-0.4752869013055487,1.0219827592553217,-0.6572889113671865,-2.304078490866612
-0.8917442812588784,0.33682367893548654,-0.07728341409290947,-1.2690944198467742,-1.346419360488211,0.24663301192597115,-0.16597854626395916,0.5315005652148431
-1.9271582800551446,1.014719963920521,0.7024307170460642,1.638805834647893,0.2811327552542907,-0.05838537393261023,0.46826268120344783,0.4004593316609502
2.04848836673056,-0.23805206385634675,0.5365731757966589,-1.2199041633756356,-0.5967577127070391,-1.0124459447615473,0.6693520584602731,-1.4443302072141326
1.1661084797764774,-0.4417505670338724,0.8475927153229799,-0.3400292600066513,-0.7103204557676918,-0.669184078845124,-0.9346065253330785,0.24863610436694714
-0.195303774460153,1.4135975919631771,-0.9537891345887616,-0.3444802696569493,0.06319939385027266,-0.5829676651018167,0.7181733155743726,0.5017931100616511
-0.16234209445283898,1.1596166649339668,1.029991477541884,0.22764635166912198,0.8362119733069029,0.17398440308758473,-0.5658388120288101,0.001116786994785961
0.6538650987546565,-0.16757022865333104,-1.416999635930399,-0.016237443741146364,-1.0464711256976018,0.45759858877270077,-1.732960423845211,-0.30656155582200795
-0.17725565565103119,1.2950451166023071,-0.6079047814713845,-1.5131664494018746,1.6655263406123282,0.3739422167507454,-0.8666762632544044,-1.6584521776405912
-0.33632349665996913,-0.5624172914092949,-0.3391174572459192,0.12734656172741904,0.17348990734453723,-0.49310372538125186,0.1986745971551929,0.6784236744458287
-1.673334637411969,-0.4254656390994942,1.3985636652768347,-1.2390593238162517,0.6472990585795771,-0.7939419666174243,-0.36923907237510184,1.7549638937924434
-0.11585940032135068,-0.6168548512420221,-0.855491577472636,1.009975722518162,-0.7943725883922889,1.5695459049122535,-0.1663633644069377,-0.4602482951307037
-0.19329281924393302,-0.16121744267681815,0.19208148691982294,1.1628201778839082,-0.9423992945565651,0.673817177579795,0.5003499823329662,-1.136846877089357
-1.828687345033466,-1.151404301747667,0.536450181484706,0.5214904899373173,-0.14252846120172374,-0.5351464594162658,1.794744525399972,0.24801346309423375
0.48704054771141725,-0.9272019405333582,0.10515773100300317,0.6513877528398937,1.2235322900657928,-2.059795213030669,-1.1789091228498292,0.8313183471812428
1.1838180144623704,-1.3515327435814457,0.8581735628702846,0.20596332213182095,0.24149087777989084,0.024047935491194355,1.7613931437011114,-0.23601468711317236
1.2447276131626477,0.8016221562865189,0.7744299735242849,0.5921940397814126,2.2210203941217177,-0.36122024128058794,1.0721075433098064,0.3961794748247747
0.6062525885757483,-0.3223838178940941,-1.0002986278037738,-1.537455177064115,0.46939141824516295,-0.6297541823756014,-0.9606638338333534,0.3484513808164181
0.3031467777010791,0.17076450884270641,0.9575910475965488,-0.24522954099889535,0.7186727150361306,0.8173908560695088,-1.6859705413236268,1.3859714208325837
0.062105968680132406,-0.1542101854644304,-0.8072043608778366,-1.393401382857272,0.4952813612241992,-0.10095225448037513,-1.0083259714041077,1.4259294335544077
-1.7119630297350887,0.9710699818908038,0.4333210348374253,1.795391046946049,0.8839221895046155,0.2813717340342968,0.994291210868034,1.0448589694281414
0.6301143057457367,-1.0466617771603925,-0.23280672572398223,0.401444987860911,-0.8324890489729421,-0.22829081872649634,-0.4178412266403465,0.6986405151933374
0.7957834872977172,0.42446524735401203,-1.3283496506817625,-0.24772713389571088,0.1990369018323491,2.1515626330745503,-2.8136261533391016,-0.7687510162858648
0.9937353924843482,0.45093268606467074,0.01779312302122104,-0.7472452170287587,0.588078997653797,0.7976996984674944,0.874477557882439,-1.487178919784843
-0.4443040706842536,0.8036099014861187,-2.3891388975268724,-1.3993243601241747,-0.0073832794409683595,1.011421269972854,-1.2614781152466878,-1.1108294454185448
-1.8367664452081334,-0.2129249131097007,0.6095115039668966,0.5163512100461839,-0.09581899614055073,-0.3237307200948457,0.4692944513510307,0.2202124015340178
0.3967859645243576,1.167931182005042,-1.5142217548020263,-0.6176926431647133,-0.9365604459649038,1.2824447327086748,0.13581088804063263,-0.40232145571207245
-0.7502319058863869,-0.5965538003041978,0.35700602237339496,-1.2264756588134111,0.8986779890882327,-0.7827500499652663,0.019635620227343192,0.4533583169385463
0.43066129826670524,-1.1598521386667966,-1.406987798446083,0.7297709827115362,0.415558505430233,-0.21084408833407953,-0.41614240330825575,0.026339608179547613
-2.1564216255542354,0.11384053669532579,-0.957136610063283,-0.7624750141545589,-0.02872837325611906,0.8181209491932148,-0.09732143680646017,-0.3465054352027873
0.3607411165196339,2.119544779211722,-0.7217404994229987,-2.115664208733888,0.70915655365771,-0.24038084998230966,-0.25959902020015757,1.3934275887662704
0.8874214889147356,1.385602043832095,-1.5420509798753839,0.11451889450436516,0.7823063733049491,0.4069526401546881,1.0985728038323879,1.3347004922414578
0.441087951825968,-0.6776571288991563,-0.08267667909788332,0.3112957134195367,0.9914340972093092,0.755147976240695,0.26031069583882577,0.396455241681425
0.5864723559553014,-0.9334844372645308,-1.2389785555658945,-1.6377356740214524,-0.9750683986523233,-1.489113470131346,1.4161484375611169,-0.2620222295653504
0.3433966794575605,-0.46005042438136307,-3.2362323334449865,0.5207425800506321,0.6389292021961824,-1.1104890860854122,-1.283574910353079,0.14114257637458086
-0.7588131392917385,-0.7107203620228105,-0.45503629095723014,0.142603410477662,0.9833639243335626,-0.2630274015342844,0.5826792097107284,0.19017521532645457
0.6969823828830565,1.261267429441635,0.7467743322962848,1.0129827396908413,-1.2138931655726763,0.2363997054648853,-0.5109546967807013,-1.6914031843730402
-0.1792614836496794,-1.4516233248028965,0.3688309029995321,-0.732454887207997,-0.005157719756656755,-0.8460891112533951,-1.4914427730099404,0.7575366967819348
0.7612845564777054,-0.466172769825123,-1.2267011005390058,-0.48919870023459566,-0.259414958968953,-1.6059167451397411,0.26796634557154214,0.2668765208109089
-0.9162131705533303,-0.9004260698737965,-0.3015411892790581,-1.285020401236227,0.8459109170286323,-0.4641129729873613,0.8820192188413156,-0.2530077525594766
-0.10979833811602159,1.1988695223107815,0.8449765935493317,-1.222588917217285,-0.4847780008667701,0.15605882439968743,-1.206954513490338,0.6493957228388239
-0.0421714029843222,-0.3220604883031226,0.0578567247300433,-1.3698709734033603,-0.15475575124794416,0.36309721238883846,0.6459704585001542,1.9720344098493439
-0.2163865851445408,0.9599957105188244,-0.014914770338330793,-0.05732776232070532,-0.20052816418064587,1.7520723652067063,0.8428307805263753,-0.2920530018400452
-0.051589984621081525,1.0187548814206497,-0.14273716790385027,-1.1614581532623158,0.03410758962688323,0.3576675918375026,0.5040957979831868,0.23274698010468178
1.6758339260505648,0.09387874040249841,0.7401076489818398,-0.382405558487676,-2.2314462845557457,-1.8209328561390956,-0.7955250135606691,-0.18900224621088485
-1.941262133766609,-0.5654565923973016,-0.0003828376572116602,-0.05242158564282371,0.20818361180752146,1.0689134869681207,-0.28116913787416914,2.1195027344943553
-0.23090569713562806,-0.065603077556941,-0.5975619949551965,-0.523163807170339,0.2512727126046759,0.0701461586238438,-0.16072985819017793,-0.15142103365800463
1.2940777875895306,0.38785554968350416,-0.5154859041382431,-0.012298933620609853,0.19416811599255257,0.8840238906741844,-1.7596971886598898,-0.10381589438424632
1.1110295555968315,0.276284562121704,0.5154375299654882,0.0867356469718699,-0.8749732583144038,-0.5719323360900102,-1.480024856212799,0.22627688935095033
-0.634695435584374,-1.250899054616995,-0.7207114090109087,0.8604429637307189,0.11791432795482439,1.6843534723898803,-1.2395692079622005,1.6153670215035902
-0.6260221835191784,-0.21858087134746798,0.010564011490950374,0.49970868152130127,-0.28088409875701387,0.0815927631308545,-0.5475531186718976,0.5521167429307968
0.4434085345608154,-0.3491573704847045,-0.5583408616697143,-0.20365541889096764,0.4427886870123255,-0.9963173458010116,-0.6345936638019881,-0.7033874332103609
1.327120571230528,-0.2885708191034492,-0.7235596717563645,-1.681552401169422,-0.3612280573736092,1.2798832940409939,0.5648574110647376,0.36054436544831564
1.0256913647445807,-0.7321673518030346,-1.430386291783397,-0.11127645868705761,-0.25326266973673667,1.7016953050479176,0.4710010731801987,0.1048271014193352
0.6816019359206762,-0.6046138923067573,-0.9855845126236786,-1.946860211511986,1.9304372498966436,1.109103043314984,-0.37102277500978775,-0.5791818838567213
0.5944698761840914,-0.22559833563997933,0.8408779946486771,1.6361950403344088,-1.7813616560412073,0.7357556447246847,-0.030242875601713983,-0.6579150924404654
1.0098940108582724,-0.866069919914504,-1.754279760293607,-1.1567432377360227,2.3008297130917765,-0.11805652222314524,0.5736214119681873,0.837006084955184
0.7623118995189976,-1.8269497286976124,-1.6829279641431447,0.35724000433983943,-0.23308088085803103,0.8435872090407235,0.13017140242056086,1.2296706772560073
-0.17528176550897018,-0.28945319291861404,0.4023523767683868,1.5462072729695175,0.47373881442349225,-0.5295095325952389,-1.6689304681506483,-0.04533585594867202
0.5213297779327963,-0.24948309567283933,0.23974159402798287,-0.03527612038392763,-0.6751133573998622,-0.8357887805125614,0.48459216231966523,0.8752467443972682
-0.2694142375545854,0.2967400966957962,0.324153828778862,1.9483981968517603,0.6165463201858326,0.04291729882030117,-0.7118462174988344,0.7294775332823392
-0.23734159218260525,1.221273631807164,0.3857470371104809,1.0149354334542708,-1.5351191366170447,-2.118523648150998,-0.5249785220316643,-0.5088047408522405
0.5216611857354716,0.9161579540701361,1.9824046273057705,-1.4168285289546159,-0.5931980894211438,0.28722367540013033,1.2667251451843724,-0.6567236843705392
0.4779475360550151,1.3793944692759095,0.6254417771961939,-1.0123518287310767,0.4363125321880078,-0.3130304750044709,-0.2886311860288069,-0.05075389036953192
2.468726419570385,0.516683549009296,0.3123868440532716,1.182587770323244,1.3263681465930053,-0.8152447501701199,0.965071967481034,1.497568476837525
-0.2409043603481946,-0.4914889345402762,-0.6704059934926266,0.9397293885376974,2.8255861172477266,-0.3266105971054912,-0.4372533476664627,-1.4436777269776022
1.5918446416442913,0.8624607593181022,-0.40862097526696634,0.6269573681405624,-0.16986521292357776,-0.8272523084954675,-0.20888575879557822,-0.1532021096443865
-1.0638023059891042,1.1307440226129317,0.3559605918616895,1.041076025356646,0.7034914639452873,-0.6595604062312821,-1.9213074979746145,-0.707839513589798
-1.786050925108084,-1.9319601958619832,-0.4038273145020042,-0.19649612028133082,0.2541601518044321,0.595377712525764,-1.2144424403829868,1.630428528484098
1.1862733011735487,-0.3200225747099103,-0.03487456258369011,-0.8270337606266891,0.5269400770626781,-0.2405224285123941,-0.1233974957699411,-1.6500455258997362
-0.20549237601197623,-1.0816956542437035,-0.6646661671990682,0.17438631794149678,0.7955647928478178,-0.6289581268611366,0.5529860095471901,-0.7370087592763442
0.6058166199041563,0.5012615259309231,2.084368768581876,0.06809620252940705,-0.3685191400844816,1.0762642015768837,0.2941023833348476,1.3732732838504722
-0.0433266552654193,0.3761334470487508,0.7728792410025827,0.07075667337275152,-0.273875090196971,-1.504933546916447,1.4725399544527151,1.615729620707402
-0.017497019662796258,-0.09570869153374044,-1.1985600690416407,0.9787543772331793,0.93066659412424,1.1766884710388799,-0.15526714246571657,0.5284330633857699
0.733297151372595,-1.0330611503274219,-0.10231251591651774,-0.023304589517230596,-0.2583682584761069,1.435410864205782,-0.4690065146008167,-0.8131951976922173
-1.0496370793625711,-0.559447272537511,1.5401387907172732,-0.8009119866308495,0.9267221626696531,-0.2566272648841533,-1.8692285235710386,-1.3093896369863018
0.8814926620081377,0.9265590459722732,0.16191031323375224,-2.2668518923049388,0.8195677231239616,-1.0869846853380865,0.08124148412269888,0.39364467007113796
-1.3513877379982757,1.939042637449893,-0.8328232145910863,-0.5243073230117055,0.6108017139651264,0.48311974926970724,-0.5715422831535371,0.8574353559948792
-0.5413581579997672,0.8543572643006054,0.9243500639346923,-1.3400643498119127,0.16094792588396173,0.5099453136296727,1.9252233028060879,-1.1436847266542276
0.02521926308441386,1.9418838101670333,0.25424263249572776,-0.44765358845913245,0.8198002821258162,0.47220546171037875,1.7600788905309186,-0.618937154603969
-0.3239501052560615,0.689088245545608,-0.6854514365984977,0.4390752317565631,-0.5443271371733625,1.5474605351334527,0.37050410772786535,0.2553952662782255
-0.176553823830537,-0.8050129399481432,-0.0650340533919525,-0.11561535319435372,-0.23671233576636064,-1.326527490193146,-0.993231505897369,-0.20688705171724342
-0.6139450396727547,1.3553114060400595,-0.538794575951138,0.579318268221583,-0.1641793979997678,-0.018063506542853745,0.9408126796988494,1.307053141041156
0.17110959022655145,1.3523795467083732,-0.4513288923681067,-1.6481040329598386,1.0922683407270362,0.3986715141904126,-0.19533601362900735,0.9486446625849563
0.846305632519108,-0.3514139725449408,0.8423507625406378,0.2987529254139083,0.3293815885847424,-1.7692292972208938,-0.41547471320160784,-0.03263550190485344
-0.5490687070542462,0.11108370638622032,-0.28352870240860867,-1.2395175134963696,-1.7134362715067581,-2.389956171417377,-0.83141310435612,1.0564782924139264
-1.5505467278266178,-0.8854865951630435,0.009821295757293859,0.419682410622618,0.1453010564138496,-0.8525105462299811,-0.6211409533133114,0.8584368536837702
-1.1339723046230092,-0.7003684712566441,-0.7575052540565644,-0.11362742051880832,-0.11176718477825677,-0.02071735821013444,-0.10347028468976543,0.2818253802582334
0.4189216442196883,0.32051791294155113,-0.4462554600569165,-1.3810848074957625,-0.10288838463924409,0.08736910062168166,-0.46229063558215716,-1.027241580550951
-1.326343650307246,0.18296585414352362,-0.5890234683001552,1.1615888582363527,0.7174869703578683,-1.071285191998556,2.819669340212561,-1.2200629593542751
0.43727106102087215,0.8772460073995403,0.5984414512069807,0.15166889297662975,-0.6388441641170618,-0.21800827296462552,-0.7171740105178906,0.37649919443922375
0.7155188524173303,-1.292119774006227,-1.5344425911302466,-0.9508101154167441,-0.9263543419041772,-2.780781593160508,-1.1984545249858205,-0.8584712584018294
-0.9395567914303495,1.017314035752699,0.4972787312973485,1.2960075802035274,0.41382122488385553,0.5920779755002601,-0.9730111768142709,-1.906325666035817
0.7946754821731155,0.5543989209350834,-0.6743340678397001,0.031701917077809554,-0.2958656389701972,-0.2834758382657535,-0.6901618160177913,0.5095166305642468
-0.33284377683283245,0.372813763867208,1.010396238220516,-0.9770891009386842,1.98452900352821,0.3101863950134838,-1.0931881738466567,0.6234819841900464
0.5185683294956527,0.2163379979496296,0.5746965730607032,2.3931990417961244,0.39354490835907435,0.5752514442920837,-1.2787345256182372,-0.19199426313861148
2.0500423007139235,-0.2032659789775664,-0.24478107903076432,-0.13667302779471466,-0.8750008753177194,-0.29367953069000724,0.20693925781249994,-1.326317608130212
1.7663375380052984,-0.8754296123339271,0.008127743133189055,-1.2023496331385162,0.28519696221026913,-1.0851465264286344,-0.009429089284768398,0.35645635944088805
-0.5467438062366959,-0.3993016064445838,-1.2466531918542023,0.840576471972281,0.299956982252039,1.283723941417054,-0.307684364782982,0.789374994575496
-1.035890216170343,1.195474529054409,-0.31017064369210884,-1.8595662702945635,-0.19234629387021604,-0.368297057032346,-1.3060882122248123,0.4815681383394628
-1.2855847968998995,-0.3174460886386467,-1.2505029334060187,1.1842743539033382,1.455622516217707,-0.4272407961597521,0.6274394680575958,-0.9159571427792251
1.1235187661178305,1.1763859153558807,1.2077553316013545,1.1356794008480549,-2.6114908169819535,2.299364946651761,-0.6380779853029989,0.025901800219013064
0.479346314045618,-1.4715695811364637,-2.0009990519837126,0.8145324512121442,-2.764015732798116,-1.891965318447859,1.3967409059843474,0.7131469904487527
-0.3416987012029602,-2.3123530890470905,1.164159917487178,1.139340336640888,0.11834278739265432,0.18723113717639303,1.0929212449730628,-0.34717407840120545
-1.1707265853303246,-0.6395035466191732,-1.752554617205021,-1.5608956594824859,-0.34758464059378236,-1.23857090094752,0.5879244751999473,0.21652686197458876
-0.2394960202982053,0.11704663290343857,0.39169155553606155,0.5895027686839361,-0.6443027547045072,-0.14936034422472705,-0.46425338924971865,-0.951100335025562
1.1176336253998236,-0.5915479117479391,-0.4626031391083103,-2.5967090657247565,0.41619103405444713,-0.4708448914247529,0.4772964045861533,-1.2031507333154778
-0.02064149988627554,-1.0611574392171275,0.051716921177262024,-0.6451318289973382,0.13323283701686156,-0.4391038071130053,-0.33454385513481605,0.2845018785709186
-0.1502136684429748,-0.4387303123754861,-0.2742756804395121,-0.4239737147897738,0.47330990854504096,0.6929788768004375,-1.759380196527396,0.7652808281947678
-1.433212473760664,-0.06251896907331164,-0.39231674371479647,0.26933414143199896,-0.779519557278931,-0.09872471540014649,-1.0122407740912258,-0.08052158435254672
0.5825542356474714,-0.24124716568470878,0.2648064682808567,0.8831302287872226,1.787080448730541,0.8083713188545982,2.211043005586949,-0.9262697770383049
-0.8390237443966749,-0.38124386334907123,0.36039275694495476,-0.6946935765098171,0.6827603174595475,0.11569089690126276,-0.3875149405671951,1.4698648056962191
1.5349320926477052,-1.0659668643444071,-1.53321378456005,-0.5381601456434798,0.052940041500925676,0.8908819909517125,-0.4245940658870032,-0.30910170913587215
0.04556515424249551,0.47554283927846347,-1.034577739787083,2.1210325808312995,0.19473047687469086,-1.2184039229404409,0.12307884232310419,0.5415735267266275
0.36989137063583666,-0.32429415058195105,0.04532532122729211,-1.910384337304897,-0.35872292760374563,1.0895719258660679,0.8101521820462841,0.6310142389468554
0.35741801214427293,0.21508252941287542,0.45069292741308936,1.8199171148602198,-1.0938817010577968,-1.4715854219693745,0.46806646809510744,-1.5175696549689124
-0.010115029027974239,0.7272649196003182,-0.9178063404461153,-1.1730239997505254,0.5932867910008239,0.9193564992442678,0.12712896584036926,-1.5308246884588979
0.8567905572084205,-0.7853774846081586,-1.2830824156985563,0.5310192236091484,1.073727946160882,-1.197516815306928,1.0364266247605662,-0.8595725825431322
-1.117807260105686,-0.7038544077606196,-1.50586272061437,0.9615484203913831,-0.4676198493428384,0.30872548756618606,1.4479973423813783,-0.5778764458785369
0.5423169497554842,-0.8100850481432534,0.7504869756477998,0.28688554509108016,2.0498385183629413,-1.5925647285037674,1.1501601990662864,-1.1532955699885283
-0.9404248710678977,-0.5824382739044525,-2.7545397996061705,0.3147796092096171,1.7784033882965853,0.14219355725395488,0.8975661685913477,-0.26304304733228495
0.320721437251477,0.1747314961762798,0.8013521252247069,-0.11386183138442858,-0.7056086343801685,-0.2595180049990385,0.469641277793022,1.262444617942361
-0.2016501117825471,1.4086359880167696,-0.25133105752220564,-0.4083067211768376,0.4151980553381513,-0.39712741478737906,1.0044494431221658,-0.5264570057107117
-0.7017026989845223,2.2142841177779795,-0.0664874862243043,-0.36662922346397064,-1.4835335756632588,0.05390439310909068,0.5083036474564623,-0.10734683594909478
-0.9592711742066374,-1.7592461891188829,-1.3328257127998782,-0.587670502419728,-0.3901521753489894,-0.36237395320881854,-1.3539846125264423,-0.4849659751668269
1.0966737525350951,-0.7101378535047842,-0.05471368835735452,0.02810276792086008,-0.35570539209366014,-1.140048123971562,-0.446560012386746,-1.853087025624743
-1.025605521737691,-1.1991947986948757,-0.5781661635754307,-0.1986746111577892,0.7487439386330212,0.4483530543726479,0.8452346925105706,-1.3615501895197788
0.8683332714092511,0.3928289913552437,-1.8937741379558264,-0.3330041501524549,1.1870701207382626,-0.22405715219740058,-1.1860645574065536,-0.7564486157536552
0.03585381678782122,0.5761116961167206,0.15576543366843978,0.01538985802013284,0.14566593121050408,1.1552959087225303,0.7645631322714921,-0.08724339461411536
-0.5109887636258883,1.9167849561218668,-0.16943089196532438,1.275735737715116,1.6086122844565898,-0.5746323910127416,0.3996552571394088,1.4112939925401953
0.7237276229243931,0.1388354177087099,0.16168088498944028,1.0364331668108195,0.3065603046784757,0.6160643465971849,1.8614419129497215,1.441827773517601
-0.5565174036600646,-1.2052431759624194,0.5651223109462926,-0.5771464896908284,-1.6205796580036769,-0.6842125237098173,-0.15497951359963336,-0.5010322867594184
0.6418567707383388,1.2744138049891276,-0.2671982651177042,-0.1061684490656754,-1.500739092706784,0.031328260253228164,-1.3871595427958072,-0.5167178813040204
1.0599189531603423,1.2334782953617962,0.37828717204098117,0.5806621340733519,0.7703899995325894,-0.3946894300216787,1.7347524721707035,0.6032518667740856
0.2996621873513731,-0.8859201126877729,-0.6840587515091306,0.7973240249190641,-1.0035295462770593,1.0787093284479254,1.704307990216538,-1.7875469894851892
1.1342268418273642,-1.080394128622675,0.42615750035007804,-2.271834754515176,-0.8361849346073569,0.24926568732361776,-1.279218531753085,-0.49250734173598626
0.5744950158050723,0.505846925367125,-1.6615965030767654,-0.32434029673372244,1.0736757661563308,0.24836228127649634,2.345981450006506,-0.8275039706517726
0.5952243971304718,-0.314174762542061,1.155851890820185,-0.8051453928081651,-0.771201389368891,-0.41144056655586264,1.0602468080975591,2.102089131188196
0.03223048913677506,1.2473495492055435,1.382127101967006,0.27083806302339586,0.7999679629966627,1.7163268483862966,-1.0816556570633613,1.0811147773516974
0.09372094374961001,-2.4934415102608884,0.7534606743924774,0.26290999319919706,-0.28460527791434775,2.9320970928248795,-1.488531906063652,-1.2617056389063879
0.2673189678713878,-0.6981098215766182,-0.46460953106101077,0.3247754519011964,-0.5090322230638684,-0.3974440626823768,-0.3787752185853902,2.154107268776247
-0.3419893620283526,1.359242628640525,-1.1743310452402436,0.3672585387912829,-0.892393931868215,-0.9679754264018198,0.8099164523925814,1.7653448267782652
-0.7899295239601125,1.3562833784531996,0.31067554952342097,-0.11964815835421627,-0.2911268549674477,-2.5108032242977907,1.1674855131435182,-0.7055900656352618
-0.6447939515813322,-0.6092747963566271,0.2698382385015486,-1.185186818978495,0.2548343540024568,1.2164730189141515,0.9687907484779825,-0.9890887848259665
-0.772137459302031,-0.364514722753753,-1.2420677811997496,1.167224700963014,0.19518327329971544,-1.5871998835336563,-0.5600211765125187,0.3481625445648331
0.3735828181385254,1.5037588741527168,-0.933845814715203,0.6423451125507604,0.6938507768338894,-0.2707366756669726,0.9399770111943989,-0.19228438563777225
0.18239151904202688,0.13565382223811534,1.0003121257009737,-0.37071796945498237,-0.7271840294600154,1.1863624846149339,1.260168150721308,-0.12232734611648313
0.5889828696123189,1.6384542873487387,-1.482032755019806,0.00740289684175454,0.47718603844156016,-1.3796251946266553,0.5723128686833941,0.010272819588052042
0.44302730095418325,-0.011157303938093171,1.0895822082850526,0.870829258819478,-1.8226986444815694,0.28213795976624356,-0.6509021769509186,-1.8519890712242415
-0.8553753182739441,1.6100354913633463,-0.7223897929600757,1.0898193383059063,-1.077585447400755,-1.289359397661089,1.0092854925274632,-0.9166962499183453
0.1829172337851562,0.2734675440076087,-0.9852843965063021,-1.4078571234775854,-0.14742609152959144,-0.16557401212476075,1.1885732147061545,-2.720950968104332
-0.5758443138124153,1.8191506332528746,1.3095303041476367,2.0450356104599954,-0.40166565111557173,-0.5207208597857291,-1.3854825644237068,0.6384067382011468
-0.56834597886611,0.6501941476233019,-0.3128740201702076,-1.0705033638975905,0.30402002424628155,1.1715821863054683,0.8479555698645461,-0.7268905303992764
0.682917493352091,-0.2978047587144558,-0.19494863029827217,-1.3316969241782073,-0.7249742934851251,-0.45531705794673716,-0.2552091963079566,2.2551609297816952
-1.066871055996023,1.8654215673202783,0.2986845132694702,-0.8907985822996207,0.7541604211679241,0.6011669691186694,0.3657469574167219,0.5562722791961555
-0.959624842475647,0.5174290325726034,0.4231819112158048,-1.8209081338792243,0.948697724009403,0.6355077521346617,0.22099953058883015,-0.37842226912444205
-0.4687878733441149,-0.965105627298871,0.16883693264705343,1.2363231404049217,-1.1422368143281023,1.1852296269758076,0.6886773812118041,1.0302036490769355
0.42007083765758635,-0.5140055653347204,1.3422386923631702,-0.19313635432686113,0.3217077561826136,-1.02057782580855,-0.5100981400203853,-0.036030696111500726
-0.1303732554864116,0.6274022912770305,1.1497450856544678,-0.5918092206152337,0.4227797057759825,-1.6147541012797582,0.11574400353569564,-0.7734910663453266
-1.186228300509938,1.4410021210961474,1.2625459842614866,0.12221350653529825,0.5570327221127143,0.029994447897939897,-0.4875889238869075,0.8967383123101152
1.7466360044077578,0.27013106456463004,1.207649407896022,0.14420907301037325,-1.439130329862185,0.8703419263933816,1.4240151858883419,1.0285462549133533
0.6498617984939534,-2.5618700126851723,0.20556378841304293,-1.3802718765751056,-1.3968060894948084,-0.357433126923511,-0.1435655556286937,0.06243914788757872
-1.338451027125882,1.236260827972738,0.44212509478140266,0.6162868689423553,-1.3176476970174635,-1.864167188331057,-0.7912551368833541,0.2244300065797575
0.6563334474609849,-0.16661736769018445,0.4650917648350245,3.5230943508046435,2.2193793477460666,0.6786835680253178,1.0067854495387611,-1.1114644805276674
2.637719178330557,0.7948639752442894,-0.046460728638611386,1.2941221005300219,-1.887881197483399,0.5922319828885532,-0.4659337906654848,-0.9951619142000913
-0.26474009957580164,-1.3586809456354794,0.84011538034043,1.1150919452447294,0.9388057861760292,2.0548046488838776,-0.23293818097480468,-0.3857718400504201
-0.5857691823323555,0.30036169297423876,-0.1880490988000308,-1.6169253566570148,1.0264726363164764,0.8386358562841285,-0.26795738068722963,1.036382617848748
0.6475208089451281,-0.8960896370660253,-1.381934461737117,-1.2670818611762984,0.9891118343035837,-1.2579145854834106,1.5233158108808333,0.01401723225624913
-1.1402145707305396,0.9108597782703237,-0.7008735426282487,-0.19422992999141403,0.6214650784470356,-0.16696152354046934,2.4809518938623736,-0.7119212988487613
0.3608455999944037,-0.6954867093811947,-1.3549930397594492,0.8177975482361758,0.3515489665192923,1.2705958728739504,1.2436552796878189,1.7038434529089324
0.7463140778720434,-0.409342939157646,-0.47031603931508326,-0.6501025450164467,-0.8108290361677325,1.3707851027176106,0.25494844872616707,0.1850476377914333
0.39798563593634173,-0.05584665456377898,2.321978172042258,-0.9852410769304624,-0.7654360561740383,1.1314186458110642,0.39670336491582364,-0.4103800062525256
-1.118266114052307,-0.4237987748277804,-1.5054304238040743,-1.0871424283436524,0.3838716733905594,-0.9830985200984845,0.3985426794182937,-0.21863766761840434
-0.19868600444647644,-0.5638310835281757,0.277710637413436,0.6400695118968545,-0.6538950585725845,-0.9012616350064855,-1.8155425346528204,-1.3938397491095162
-1.0107204702444788,-1.069356414174125,-1.1407662878096938,0.03620024574476833,1.0005589768473204,1.7879484538820807,0.8138273281324505,0.10004737809791285
0.9611045625635519,1.2905621275206505,-1.2411021143197698,2.134410719530899,1.669825403202105,-1.1728224043026632,0.5200796636043163,0.541291857741264
0.4434679655685961,-0.4471336770072067,0.012401002481662097,0.11690277907472298,-2.5423864302979347,-0.7455584869458263,0.8049632994677619,-1.3229964097809652
1.0029465281206387,-0.4225573853292624,-0.7221044376650507,-0.13476068541028058,0.2712816161120735,0.5989466265549092,0.32675341648819617,-0.752231251276642
-0.6210584658675053,0.9216756806444399,0.91423137708102,0.4941670394748366,0.9765063429986158,0.2119403999597248,-0.184685403614603,-0.8240157484512677
-0.643607752610317,0.7283511304921962,0.7924753431914354,2.2969378658101993,0.35667152781400324,0.9062273802363836,1.0219128022234827,0.8314385952231861
1.1185013684186556,-0.27741751408591075,-1.3156160652861446,0.442377949667527,1.6199687344126652,0.8906712437845852,0.38271269686380055,-1.0535742616845871
0.2973086511303867,-0.8109659305018174,-1.2563298355126016,0.9538343888753431,0.46147781157477924,1.2698990338701905,-0.5017131707495963,1.3133012038834335
0.7685488986534524,-1.3966848785867954,-0.13593660359993345,-0.08472115266272788,0.9520295756480979,1.1548419553762717,-1.0181907332919211,0.7602352208705336
-0.6628474055886252,1.1275998285139075,1.9357831127017386,1.2580851446784538,2.518754971994958,1.272116517793506,-0.3022331545008122,-0.8741240885544713
0.09267789412991267,-0.5949258636248579,-0.26915407094172594,0.6014343457665388,0.3997905505989114,1.7906864459408245,-0.06139137109508243,-0.6813991466756536
-0.6184590227980593,0.4072573041846872,0.04847405998516692,-0.2645046463874347,0.11941285160405432,0.7180352120853958,1.6422309456617907,-0.2699408598815026
0.6539129295879751,-0.5236510708866312,0.24578378260415568,0.6295308942326221,1.1441474403360872,-0.698004196649121,0.19845796393957957,0.1440962533548085
-0.7795577954479408,-0.18175871590551643,0.7971483986595063,1.8750603898787077,0.6582470289644807,-0.24026030032755688,0.8196558570444238,-0.45955921196942495
-2.2389395682402116,-1.6909615876332842,-0.47696166046682237,-0.40848933235317936,-2.5753519157253923,0.02381490236930288,-0.2762127195406549,-0.7290786023763111
2.133794531105562,-0.600363844055387,0.8496329182850328,-0.6009415539548769,-0.8038777498418379,0.12735182825593405,0.020432714081597213,0.17551147273436232
1.652098426448711,0.7106088990085971,0.4755358897156494,-0.704251097720133,-0.16056542493855022,-0.7431053788815183,0.9303922632353713,0.40601908545904963
-0.5792784584744256,0.7898141493092209,1.4086412111411197,-0.15949654501603064,1.8252899797378208,0.2603025778635148,-0.6900899388639132,-0.4617570176081073
0.5490627978790851,1.5869828144553852,-1.047261387702754,0.21734271463219018,-0.670780744444586,-0.5246859348976372,0.5045140901103857,-0.15265879867559612
0.4360362797266658,-0.8100524742866391,0.7917211107940154,-0.1676632399540969,-1.223904713088619,0.49154660580969245,1.4004410216461167,-0.746615872588539
-1.0163396787346042,-0.4899731769180595,-1.6962283226555943,0.18742404129154216,1.0784276520542968,2.8589926657896445,0.13440425904637546,0.287031349773395
-1.4175488696942182,-1.1042726762197352,-1.8666564237214553,1.1442706831676555,0.5283680346645373,-0.5282461466319079,-0.4042056687069397,1.628181777418958
-1.8151208222662678,-1.7381167796847259,0.4171601873149044,1.626461268585934,0.1886320720205925,-0.9950492967444483,-0.011692790990076382,-1.6829581937287803
0.24314161454823538,-0.7887384503954632,0.46303177245341065,-1.895955698860994,0.943168304181047,0.7697657312294203,-0.9211400530361774,-0.18340036987203387
1.3631017996835098,1.29924781609709,0.8400753510989708,-1.1944561773525,0.7465253917615158,-0.9838043787354291,-0.47066466849457783,0.9362437258629153
1.2829262182029928,1.3434993080805058,2.16281625191757,-0.06049689185858887,0.06091223059519281,0.19970255492479363,-0.16327355276756722,0.024149255193833086
0.8423993144444719,0.7844780370562859,1.2346803357037788,-0.9231002118332234,1.240599785084964,0.4641091758979632,0.3950836657507586,1.5822930447776562
-0.5129038016967198,0.2102250081132759,-0.6175041091809357,0.023185923279716036,-0.513547220753274,0.5269434364598904,1.2205751251456787,0.8442563139239344
-0.7533912309060065,-0.8513742848213933,-1.000584490273387,-2.0524331850869313,-1.7585754559036368,-0.7474348146485011,-1.1271572096359779,0.9973923408226769
0.07152984258943487,0.2495213525474477,0.6463174200205581,-0.17843372583442968,-0.5020887500933193,0.9130166592860036,-0.09083791017862458,-0.7480667255620925
1.067546623226374,-0.14282700705622217,-0.8393150227073005,0.8790293621879708,1.0361038662093576,0.2661930560516282,-1.1017983805606835,1.0926313692192564
-1.0873134228232544,-1.38462937174734,0.030486864223945465,-1.411657841560193,-0.5466453582990174,-0.46657873595518573,2.95025097008381,0.9091078858560336
-0.843015447880697,0.8271598836453701,-1.3171641486228565,1.0260725925915677,0.08622105447129773,-1.0628958052946516,1.0498521253885804,-1.5385091752228697
-0.4338244761094036,1.8072465778979567,1.2511801058427066,0.49376522574542503,-1.8518924526426523,-0.08013942611477155,0.661998184624139,-0.1433756678963098
1.5861545800332852,1.8379085914363829,1.3251783216499002,0.631960917743803,1.6789216034982535,-0.8172452353633881,0.1088981972442399,-0.7815711508095264
-1.52338249765559,0.022605635334789997,-0.6582047122453439,1.1196917880761086,-0.16116845734529262,-1.4814064064615928,1.2039681895466456,-1.4266910206245331
-0.9656438546590712,-0.15413864469374383,-0.3976255809825437,1.350766861382751,-1.145347667508578,-0.2548504557011665,0.3899188810055829,0.5921295863530935
-1.0258542770762908,-0.5791606477892264,-1.33957645075138,-0.6037072836858067,-2.1660449188274247,1.5561348738556364,-0.8473639092778517,-0.4963796719451409
-1.3138599639153221,-1.6897633719622267,1.3921470238208271,1.1748070792662777,0.5578255159848587,-0.4369544485782471,-0.46565056561810236,0.21144582267411238
-0.14391276669374775,-1.0531444711615594,-0.6931625388025041,0.020585698002500076,1.0453530048096082,-1.4665920346044623,-2.185410684103743,-1.0067135180121705
-1.0043859361665546,-0.17450126281045258,-0.6051158974315672,1.508898600529508,-0.02645674989059733,-0.8204938031742619,1.6052242291158791,0.6347484374625514
-0.38420350110767737,-1.457919622474601,-1.1589266959857862,-0.7267761068863791,0.05840211379378221,-0.2826354287961771,0.5125582902544992,-0.08606261146834863
-0.9899023585379341,1.3108317531394948,0.40332315489099957,-1.084258363746246,0.9239505509602867,0.1513279051632619,0.2051001563745637,0.0065892369423459505
0.9787975232901354,1.2118763121257812,-0.138174432072255,-1.596551789981703,-0.176489555174426,1.5159644842528748,-0.3225063614495818,-1.7789618940733818
-2.362261149729701,-0.627694021086592,-0.8331821659820557,-1.2221069418282529,1.0114189128338908,0.7446011188040368,0.4474425945130562,-0.01528095088759067
-1.8945727113853006,1.1642747768943087,1.4079064320204964,-0.7103806387167884,-2.105718630186958,0.9164863120738906,0.33589253292644816,-1.6590648092771643
