0.8681284563073381,0.16396655097620233,1.3202782751472244,1.117390298578266,0.10076232738340765,1.6320176296327786,1.0562932599281885,-1.1934103457790608
1.3100031711894116,-1.2864630012804905,-0.021015654449593513,1.6856320578183654,0.04731070754007622,1.8591921299000034,0.7370161143568318,0.00470592565521126
-0.9076503115734232,0.9709463854936361,0.5436229727203146,0.8874866910498517,-1.5359087173190478,-0.11616097948990282,0.16528441264591467,2.3299009426156925
-0.0709065683362091,1.854663306648762,1.4540767491850193,0.5309319685361773,-0.2540786751018749,-1.1104287650439575,0.1752857239733215,0.9474650018433454
0.4918316649769457,-0.00016005870063588205,0.4240846194383965,0.6491816085299578,-0.3225229677582441,1.9098776083010052,-0.669542516873848,-0.7271116689809942
-0.2358524728593097,-0.30761523950210107,-0.23239173410729275,-0.44915407973555427,-0.3057044324564496,-2.175133660145733,0.3191921201270333,-0.8239887118800736
1.3678326573053938,0.5294798257476805,-1.7637174444657582,-0.1584171820879073,0.10382336056134073,0.7258731380390271,0.20998041061802278,2.140823966444716
0.6813383340596165,0.6352594937934342,1.2372148541305945,-0.4755679615117866,-0.8383235013536391,0.5968065390561114,-0.14368679403671752,0.5992843680579467
-1.2873060280980138,-0.8627649778416783,0.049142439109335155,-0.26611103653960455,0.060342093407913404,-0.9854379235964983,0.33530166384376886,0.3684389708384205
1.6335841543712144,-0.8672039869774419,0.9276742625993178,-1.5434752450866496,-0.4351584087448477,0.7085040864599017,0.5683468680574159,-0.11553647787945905
-1.1965729077039051,-0.18864775813173762,-0.4675678844722655,-0.9116369538229688,1.1317698387360788,1.2029759933081599,-0.29461071019531376,-1.0549210405624359
0.07982825640409309,-0.14841893379253066,-0.13642219360752852,0.6285935639206848,0.2230030591285197,-1.2490979081411155,-0.824169396737228,0.9841206692869797
-0.9594535810568364,-0.3770289912982312,1.975743510527773,-0.14459146400334968,3.143332180439448,0.05180519833373358,1.0495619947306396,-1.535856174847597
0.6488063259813251,-0.2480236593605917,0.28320358973035953,0.2447676506513186,0.25006730663779086,-0.2864244072951888,-0.5868786367911977,-0.02064939196485534
0.2828357269786995,-0.23090828488833606,0.33047467885063747,0.762875868780937,-1.354350607100166,0.9577367464059834,-0.5633455265119978,-0.49365187603749966
-1.1570341737275505,0.4074621545601811,0.6470021723094419,0.8773664287621307,-0.32375722752842817,-1.365121336063199,-1.033458611352783,0.2421258825386691
-0.1162674301530884,1.7539616506728197,-0.5736156990171491,0.29399618306979525,-0.2504591483317152,-0.6116662814112348,0.875101296039948,-0.21076942871130805
1.5590238060382648,-0.5088500458958606,-1.0683929801453218,0.25218879751672674,0.19950431828319332,1.3201228262189577,-1.1000974455992634,1.0817707030340298
1.5731051815236168,1.2311127568828986,0.2157631603250627,-0.47705096016765536,0.7516404960783823,-0.2715765724724855,-0.0977972487934161,-0.0390684744907443
-0.5458352057459798,-1.199176220309332,1.376861945511815,-0.7854048262365744,0.03641817217252494,-1.7265364282899784,-1.5863407144013928,1.4684710732237332
0.3693011123346854,0.17466600923164677,-2.0443447252175413,0.16441705101469467,-0.9444164779631812,-0.7547931648281044,1.0652822144192533,-2.7384441145178915
-1.4380232012335443,-0.3147484535149889,0.0931914302485694,-1.2851122518637104,-0.5911741393330944,0.13728326749921654,0.6792771689619188,0.07203867076977896
1.786327707953454,-0.5537256502418556,0.5335195128087994,1.4645469026344664,-0.19060009571701708,-0.884580044594585,0.3748298262515627,-0.22099584516886564
-0.529550678342318,-0.5888664629949945,-0.5948620593383644,0.5872890073603168,0.42902568053152146,-0.8530203177558537,0.12991571038099908,-0.6880266614476049
-0.3647190474254352,-1.8368754388556048,0.28335089410144115,0.07086162632727473,-2.7179298958456637,1.6185673078507683,-0.3821653870079113,-1.8056454859823705
0.1329248530617083,-0.4862829623682815,-0.16013561963690365,-0.7344610430074596,-0.3696303765944214,0.9541789479797474,0.32085131468071676,-0.759916427259085
0.10630708149107158,0.8393478220137518,-0.3162784724474527,-0.5322591190399956,0.6833842975661649,0.8663434404428407,0.28455163270251743,0.4179185600295936
-0.43891983878985447,-0.8391938260398661,0.19407501725340107,0.4025753240167041,-1.6106732205433567,-0.5987516490159749,-0.7246663166429427,0.12361708399158332
-0.6851492111787209,0.3263935529757605,-0.8525852101707209,0.8167494659206507,0.2233706298790492,-0.7359666010398178,1.4003976349889768,-0.9545412778215399
1.0022251872214403,-0.33566169597342815,-1.2137697734351651,-0.8783156353268994,2.20686819821107,0.9403547007538173,0.35121111660988086,-1.4245200311555513
0.5863409503158092,-1.5119271054120875,0.3662270480808887,-1.6823461600254208,1.1958893934155757,-0.9778492883240547,0.8140308141173286,-1.9229329357473588
-1.1691064676038807,-0.5654573597998468,0.3580298803437321,-0.06913677395418719,-0.622600779030438,-0.2601718015219867,-0.520732017138709,-1.5070774807249343
-0.5040794278997782,0.16216561260177229,0.4770338090850744,-0.5992442095634065,1.9602140275516364,0.3278669682748248,-0.4208822326698697,-0.07407844835861953
-0.41957327901225305,0.6577537066727606,-0.6538702965075435,0.561258764585132,0.19701054014204114,-1.9081877176820932,2.511252502673045,0.0010481120443669788
-1.554242682640917,-0.6285454521499726,2.0931993092553154,-0.20448854521565407,0.027293342858214602,-0.9042016331790945,2.175940448133652,-0.6652830071201237
1.0945843060984288,-0.46935589045878173,-1.4089036734917666,0.9716492631312563,0.7848061224687458,-0.507508454755682,-0.4444911342380603,-0.5004976393271986
0.722065782809956,0.2290499657974237,0.20858717279130695,-1.369310289678668,0.5362227601858257,-0.20715872385014486,0.9483187083020953,0.18368173146289205
-0.167399620594893,1.0213921431451385,-1.9228593582799685,-0.09605626060948637,-0.6824442713206503,-0.9264282476626686,-0.7062444463513216,-0.21934490727540823
-0.8357523223990951,-0.29191618931461727,-0.9527398681863494,0.6548336785894842,1.7976857435029185,0.48614398480602233,-0.5365490358431626,-0.5569779133139899
-1.3250806501353658,0.9905949631537828,-1.3181863824754005,0.25175612650162416,-0.29545003755753807,0.23799128314627035,-0.06660808099193388,-0.1142200632837666
0.4409686298807121,-0.35306743444433225,-0.9421662328062855,-0.2650853192038387,1.479456913518069,0.2951383833275666,-0.35247837739449384,-1.27712913736032
0.49080758173116856,-0.05667624263117248,-1.816929505563702,-0.48000682900273256,0.23549709472816557,1.115295883605461,1.1333459938031436,-0.4480864195077822
-0.4317723483265298,0.0704030221424953,-0.278418675402873,0.5540394441592781,-0.5477558212956833,-0.1410073607965577,-0.5678167086924503,-1.0740792281326894
0.9943968384473548,-1.5010672653492094,-0.07861451377111277,0.8444099116576725,-0.7492081980900304,-0.3121251961761981,1.553139174133727,0.3465780254702109
-0.519677718801291,-0.693081680278604,1.1900131688967095,0.911691705604392,-0.3181109336230198,0.7604412500463473,-0.3029215880451473,0.6920044039424363
0.07673314289419406,-0.46365531998737547,0.8586675233126315,0.20146174636344188,0.5657947133430176,0.13406448683838404,0.31156811423456526,-1.498259797962142
0.18165718390067395,-0.4827972422844635,0.04166099764851038,-0.13126629637881446,0.9751082765475999,0.34222048905899627,-2.3611571426473983,0.9681480023352477
1.37116520967243,-0.5880159796642929,-0.2773021176842638,0.15171746071552306,-0.6856891540390169,0.9278522560309634,-0.29195986804624735,0.22357793613262206
-0.2941720973212897,0.2725901756173383,1.4967959425822865,-1.376248634054204,-0.6270444244443169,2.14254018257739,-1.2677298236777463,-0.12698108883467407
0.7634464809530014,-0.353584137354409,-1.8487161934706537,-1.1119230911039188,-0.04954410238374791,0.061955301454587,0.48829503944300395,-0.07054704030347513
-1.8504072744687154,0.490122581459449,-1.4032495571987174,-0.3720459386257154,-1.136660416653751,0.9138357285125298,1.1980958700901825,0.3564919167456431
-0.48454102598493487,-0.03274398434157002,0.2727166881692968,0.5154647828799224,-0.10138672662762255,0.6785130231983989,0.9179120863708979,1.4848561256565964
0.021784916988712523,0.5247122460618355,0.4445952672150382,0.8914773129698683,0.06258083851856483,1.0482105142348113,-1.0520778865474192,1.523201963935068
-0.44348523867019224,0.771208444160544,0.6829488649859173,1.0529330234528207,0.02061428786153702,-0.031092125835724408,0.12579097188509428,-0.4883697891549569
0.7031934325265609,0.04876213252856809,0.3996778075707743,0.5325780114821689,0.006069528268771288,-1.3207311753022737,-2.227614467634074,0.03327904631478761
0.17811776401972884,1.3666178318121465,0.8369266984933299,2.5514297831927886,-0.6248350825628243,-0.7334553228043851,-0.3264762317061383,1.566103455447728
-1.3903204344604352,-0.6090422452052365,-0.2560216691778002,-0.664817838111948,-0.11056949987271819,-0.6878037268626809,0.48471729089448456,1.0335152339488995
-0.21633267856469152,0.4838806464905887,-1.3678828985604687,-0.24985346975691047,-0.701931697689189,1.426312169624259,-0.19037619747006862,-0.6569245130316911
0.16026667525041258,-0.019067114024871698,2.143676856505484,-1.5987830592678671,-0.47577553960450264,0.31712697877298074,2.019250435467391,0.5844660909530119
-1.004811614974684,-0.22956508177389673,-1.212558300755119,1.061928994154873,-0.8866344052093146,1.707243759809888,-0.8990944887330277,1.6896281262275656
0.7182607762760966,3.5808607636143086,0.9317115217034926,1.206045363283872,0.38776770579584,-0.3367648813371032,0.3609673437247757,-1.5087508566332566
1.6591978967639143,1.4965359722538922,2.329421897001681,0.16523045004362558,-1.3659793188847045,-1.3959420797220252,0.6882498542564779,-0.12115234663043573
0.48834420697209324,-0.761114855259398,0.5107506256126272,-0.09514776680305505,-0.27280719236555123,-0.4977133117474974,-0.7457250509877893,-0.4502227393748412
-0.6267109724801077,1.6716504849950853,-0.007528372180835531,0.5921064138680986,2.7447584420687634,0.5931604241475176,0.5240387972714112,1.067345630425345
-0.31566811450714966,-0.33597066107470724,0.7328767592523302,-0.9210386514918011,0.4134313713199124,-0.40686024861210807,-0.3659421305170382,0.6740722755181496
0.5396021222175835,0.19590795220265972,-0.24163136641318927,0.8868326124088506,0.050533053378731436,0.5066420019673605,0.46862307421366556,0.8693124322994827
0.21337208893711807,2.2608090093345714,0.07195404834758015,-0.21235964087065787,2.1012135423704676,-1.0924494951725026,-1.3209108113578574,1.1481400887482653
2.0244332920232653,-0.006325246202948321,-0.5765740701399267,0.9773463970957983,-1.1136040528896642,-0.519893354661396,-0.08739192548027185,-0.21156361167348087
-0.31897085682812737,0.3840588563137156,0.6784168449187009,0.8572141620983575,0.506781398035405,1.4606269733555162,-1.1454414955605907,1.1129908358422977
1.9029550907555397,-0.6685279306121873,1.0183415418812427,-0.8533236365160889,0.052898661129819384,1.3356940698418294,-0.29094464754216,-0.03860614729403357
0.602492541772748,-1.3348149803656357,-0.021315721410383227,-0.15838686201041177,-1.6037688087784416,0.02058390562238415,0.05615623138998051,-0.9133614434910062
-1.1424691842101264,0.36396972850623405,0.46705774880886164,1.2389723988557173,0.4336891467975118,-0.4520498232360202,-1.0058321968501027,0.8067065215190397
2.028523421077765,0.8051554345417544,-0.11032091134358916,-1.5258977898332098,1.0056290028308934,1.0278844302330299,0.29065647857447907,-0.6002467214493155
0.8749055588534641,1.474700336448421,0.3054670081244517,-0.7165363866048047,0.3933193477161459,-0.551338508553168,1.0668820417671854,0.44219943295695346
1.079514663436717,1.0562978982163245,-0.11975292156776884,-0.03539823476064351,-0.40582995096724733,0.33880039904792497,-1.1468302909076804,-0.3969187923848883
2.0758721925724544,0.43498582705697686,1.0803372084392255,-0.11273086153948778,0.1268200140272099,-1.1731480265503136,0.34942099496682155,0.3447822526052817
-0.04504747288557549,-0.4778442759157153,-0.32673064478182967,1.3485038893383876,-0.7810509530818391,-1.8831573598156284,-0.09428469918170324,-0.07780167950663976
-1.5556515250035716,0.15698219315329281,1.02980867988718,0.9093148715002997,0.09597978446378368,-1.2843722270710598,-0.3541741464317474,-1.6708013787981741
-0.3900545098999371,0.7123028400251324,-0.35687227963292273,-0.3108691850420376,-0.31626857334368064,-0.16214093104088642,-0.5554471820843468,1.4636416738847715
-0.24587825844338168,0.14246923412792648,-0.455172201136751,-1.222256509008984,1.7321583537413603,-0.15102489072822284,-2.292522739988778,0.9334275259335666
0.39478274165811694,-0.34926669258229337,-0.6878529528790039,1.491659502047908,0.3509745025660776,-2.2146608939285306,-1.0017658436221526,0.45744917208244235
-0.503718389513207,0.245061844103573,-0.5507768418950857,-0.6914283377600854,0.386132948456769,-0.3269865911339467,0.14577430995593596,-0.48742817132553906
-2.324061235541552,-1.2977766076345971,1.0528152006597926,-0.5669680232491625,-0.49099574203370216,1.1862555740996719,0.5609909712984316,0.6980805199718925
0.6150894245378964,1.408683887614902,-0.21665893936502847,-0.9080233694227369,-0.566544986560469,0.30185106492097835,-0.894913559824559,1.5900273168032744
-1.5248743800884983,-0.04589996231431411,-0.11101863187033915,-0.640639361345486,-0.824424396215914,1.6335380318522812,0.06274249313908058,-0.857511646345683
1.6739891160345337,-0.6335431184372571,0.6359627852014783,-0.34432423822063996,-1.5635763950007102,0.6466144400909033,-0.18108390378213904,-0.016626558437053476
0.830385888915515,-0.4702666731219019,-0.262901009546667,-1.2508262325680901,0.8047168480531023,0.6642239403858086,-0.06662575425041709,-0.26452802020334076
-0.37967379274851437,4.07058044064094,0.7379980079719526,-0.4938718199690611,-0.8299785910414862,-0.007043249296891082,-1.2514486447735464,0.29884524187880146
0.6545440689189937,0.8237351021453685,-0.16130613735815227,-0.21907474396393106,-1.3216327939901444,-0.30191528335043594,-1.0479183210788177,-0.5219156475700409
-1.2916319501219768,-1.7553479355453534,-0.5825004744601044,-0.7361734916098048,-0.005586369429629301,1.5594203268336118,-0.4034050589589752,-1.5462395913881375
0.21496716014608933,-0.11252166669679331,0.9838909997494247,0.6572118052899198,-0.6040929265355695,-0.13546480775059272,-1.4121741616499852,-0.03248130069034075
-2.2842960259656007,0.4212559400930072,0.015436075053842908,0.9265852421605147,1.1753348826470031,0.9835674824414198,-1.0767694294148138,-1.6563979219809124
-1.3720652243491416,1.0406228664990231,-0.3216963906784397,-0.2880088308224545,0.6688214495356177,-1.1145764424368358,1.1213089207498101,-0.29439683799392913
0.5754383402026961,-0.6526778099734938,-0.20736065051181637,-0.9547898600734772,0.24919870419453619,-0.6682523153638754,0.9377519672028002,0.6731723608054843
-0.4425500236277889,-1.136533198755019,-0.5656968138855176,0.9966711087388243,-0.4308054506720364,-1.0055257166937925,1.6482849306089031,0.6664430566403662
0.5169058395273052,-0.4542981518449323,0.04225840715358522,-1.0865423093578033,1.2179525208216433,1.1541226636009876,-1.9914653154086022,0.4658745686684416
-1.0992713452265757,-0.16398261560862237,-0.25456730702948577,1.452005647693013,0.7416567847549205,-0.2857081191353293,1.991489625986376,0.07647527778237508
-0.8647717073896684,0.4907423190209284,-1.187087430296637,-1.2404414198800486,-1.0441500966812245,0.8982064803270282,0.7738433181622191,0.34021546448833573
-0.387121811892068,0.6848496178392477,-1.3547446533826077,-0.6166410386543533,0.6458278908059855,-1.0170848047034875,1.651536859050854,1.310402013837791
0.37042712703815006,-0.561385962277329,-0.4916587175294489,0.9799153104044689,1.5771366305635952,-0.5957021386023522,-0.004025404985069301,1.0025130310218997
-0.9643700427206646,1.9039306387402215,0.7308236631659406,-1.1603529373524926,-0.06131753059217486,-0.9437917961637198,1.637514642931689,-0.5202476088520896
0.46356581674494124,0.5381419568881782,-1.049209627610724,0.6884898566583671,-0.4095419230291716,-0.13455471127145932,-0.12657184603861704,-0.20103657942572076
1.5779583040975524,0.3827025093530601,-1.5026078999462502,2.2628151280739726,1.0413510382591558,-0.024753214788329897,0.45017168592581286,2.6384086078324507
-0.13204170626283562,0.6874159963409381,-1.85889164304074,0.36769593204079093,-0.9104657342756652,-0.6237204528591868,0.6480173315355134,-0.18341419494623618
-0.19281265241268494,0.8083836270504906,-0.41727988745438,-0.15520855930649005,0.02892210896468131,-0.09439920557519986,-0.6801030518494287,0.386727890316361
-1.1278718286483196,1.6066696284433515,0.25288003421097427,1.0568235951572964,0.02697617857258871,-2.029739789612686,0.06803596920942324,0.6699627009594126
0.5497296024952077,-0.08217811580763633,-0.6274072179359568,0.46083049965921513,2.683336624299062,0.5284879580805334,-0.04204242355218519,-0.3619003054925897
-0.329360863949263,0.08366290314171262,-0.35065983981329896,-0.5776662501635939,-0.7591680141290007,0.24174256584570805,-0.5015662325997803,-0.09285248906939991
1.3490812747098824,1.2016473222634068,-1.8919142294764932,-0.3375084091727053,0.09297782567850488,0.5694656247808518,-0.7338569556552434,-0.36799865186656633
1.0465404432800738,-0.06645848173697254,0.7572837391094198,0.15471361666166858,1.6658940007450613,0.03246068089543878,-0.430824189938464,-0.00926041331419328
0.8958049437028441,1.6849892515364011,-0.6062169336176567,0.4102992353649852,2.673047887760153,-1.170885152225442,0.42938911733414165,-0.9371229079489531
1.1331669947210616,-0.3771844313257889,1.6662675140973333,1.6284076114533104,-0.20351741970832032,0.36650070685555386,-1.1460635114911972,0.7021509228387617
1.3713671338896025,1.8790195327898143,-0.07613199871325424,-0.537040509301061,-0.40088987466582177,-1.8014254116158401,-0.9205046467921217,-1.4528563336646965
-0.8200396760092405,-0.37996063475091435,-0.8085140071341793,1.0521219615229505,0.4283657733179454,1.13374111104286,-1.8731418727469453,0.21314369692696983
0.6788509466228,-0.9196695440098833,0.25962101282793476,0.19453402916159063,-1.1185778299101703,1.4930028216099107,-1.5572232564148352,0.25313768257686703
-0.17078395581037162,-1.4492190129349907,0.5592759061405362,-0.24937850287011973,-1.860340317158936,-0.4252410905416148,1.1773542793780816,1.566647613534979
-0.547815048705028,-0.29451572084140826,-0.33676369502685805,0.4155253467386547,-1.5939430058892174,1.4491421572775856,0.06319490692900954,-0.4537193585125744
2.5761859429298952,-0.18385395843966063,-0.5101349561810193,1.179434757901531,0.17623233819219408,-2.188679721194944,1.3376462928432462,0.005289226304422772
1.6908052723058264,1.0369924531547245,-0.2566815868671083,-0.35331445412014617,-1.4495116527472764,0.6516045220998796,-0.7522116538740227,-1.5779739776540576
0.7231518444794588,-1.0839033532102191,-0.5282693292406265,0.7128747708010084,0.7169248311709268,-0.7503567245700602,0.16916457626621112,-0.17062687012716807
-0.5880322330662031,-0.8847415553018964,-0.5361702361044126,0.11331227540593428,1.9278608146353895,-0.02648489810681989,-0.9446210277333614,1.2732723781069908
-0.7717913934556478,-0.08463981453494203,0.33243733338521897,0.413873643232171,-0.018038446624484353,-0.1490157528240819,0.11234962609110508,-0.3865446675774435
0.02228668440958871,-1.528035856472337,-0.26599111494720606,0.6456654201733972,0.7992998125115033,0.40768788582362986,-0.4038625316146208,-0.008512913702563319
0.11492362816868064,0.6706978654629393,0.09262454089554431,0.2525387372284708,-0.31209677999049623,0.203785374021321,1.3258929246068214,-0.3290215657516199
1.0893676787387625,0.5157834169770511,-0.44166781478940503,-1.0551652742526352,-0.720958501841397,-0.9386094026271725,1.3903483691749463,2.077531758496768
0.015341861279095776,-1.2793250070809437,-0.8697585602935908,-0.012487778843153925,1.1648410662507531,0.6780802252570526,-0.09166490835046649,1.867559038263521
-1.1583754553424916,-0.9904487978626113,-0.7220184438379764,0.48041606356181926,-0.14581904162277573,1.9176979179678637,-2.484214233227801,-1.4066914316453807
0.4313695356283269,-0.1590037092828761,-0.038710063829111824,0.9101170083044318,0.21478556899845425,-0.4669775835035842,1.7341182633565657,-1.027602887692574
0.004831567480933165,-0.47637628078498734,2.3693370456307687,-1.2195711242951155,0.5462545907905286,0.7508619459901196,-0.859907354289284,1.4571809283404706
1.5192110520426245,-2.624366581103962,-0.14007862963882414,-1.7021637586715987,2.576928326426175,-0.28903021943421436,1.5422257794180778,0.8100060545757953
1.1934185599596772,0.5275438948390584,-0.4598461431326652,-0.42831922477886325,-0.5256072488156356,0.5107109935535904,-0.5570762734695422,-0.9207947135100121
-1.0156165155472652,0.7923032449904568,2.1872453168413974,-0.7595259654501606,1.5024186630698444,0.8967876500783957,1.1581991613870946,0.9705653810863469
0.13006855395161912,0.025114254207880313,-0.7996772701316914,0.4430900760869938,0.7189061470193959,-1.3309404133780018,-0.15041419145727095,1.8368909939431044
1.0141705830625016,-0.20954164480852244,-0.2338831480593703,-0.8169753520032788,0.9781461595567671,-1.05988253639342,0.10480095442181553,0.19220077720236478
-0.351085670853457,0.6877751216957774,-0.7002429952842881,0.5589440146699793,1.291208302442375,-1.3948219118184373,-1.7079622090555293,-0.3645397818094908
-0.4312276445109692,-0.9235598779954077,-1.029414367952522,-1.0411563547822211,1.840931982247978,-0.6274051545600754,0.19692681729020073,1.0194183326660802
0.23858839555032318,0.8628287003045035,-0.8361974581260206,0.2952153074853648,2.257895326004485,0.17576904004826194,-1.0101132976666252,0.8596007119515765
0.4667584599981721,-1.0086745761702653,-2.0060179901192696,0.6252524620512009,1.5055246704468106,-0.4927890971782892,-1.805683449454766,-0.8493627371587813
0.14833679357210885,-0.9810237149810441,1.162470585205003,0.888051929181194,1.1996774417272738,0.600195491753565,-0.08544201202302719,-0.35728543998011175
0.15387645511072687,-0.11646516895751131,0.23181745443982088,0.3121789565394869,-0.3943632489080984,-0.21736237315990659,1.0233448929859703,0.022467618214492658
-0.24105152384122655,0.5293830418015506,-1.0951461805718121,1.7080743677142167,0.11661821997359163,-0.8616962919887721,0.8959357311533491,1.4089867702929224
-1.0139697084752892,-1.8920875680859266,0.6900035914617192,1.7191336323720334,-0.30762156639289856,-0.04385584877948843,0.27228784062641126,0.2110220255847493
0.961456703879896,-0.16242684157902676,0.9476373638891257,-1.3417035228372844,0.0029176149165960233,0.5471721134503456,-1.1644511553303611,-0.20202393774719202
0.10150403493730344,-0.40749479423540436,0.6208537312959601,-0.7719300394243122,0.3955805649970485,2.3632267833307163,0.06715024980149893,0.4286153358618305
-0.8465415845396034,-0.6900305236797987,0.4254573661628073,0.46367995346981383,-0.6526579795552112,-1.005138612619406,-0.8527351333294267,0.7226858341444384
-2.4067819815493694,-0.12949313361027395,-0.7204310827662096,0.04464485516227735,-0.12520645878042966,-0.21256341897689388,-0.9987372889673444,-0.4365081432891684
1.5757301405225066,-1.5988646684850467,-0.5534777213619264,1.170179090216223,0.27685764563133425,0.19489031867597792,0.3963238816303867,0.23927409363918128
0.0011316183635666284,0.9218463610784462,1.6731238525618581,0.6287901524513437,-0.561164529746572,-0.6439919160529972,1.07728455804515,0.1239984573455155
0.29218999342265806,-0.13586015739904944,-0.13818477652528646,1.770140597481581,1.4586455222870216,-0.4505220017274881,0.8824178525400163,-0.37658127874333874
0.8730210217948808,-0.4124258269663465,1.3259320731408282,-1.3635900474108966,0.025017341297794583,1.0697017400381321,0.8074404736060246,0.08483328273197951
-1.2005921504427817,1.517507157520005,-1.8322935721181355,0.4528012139034615,0.25071314729667726,-0.8293704610976897,0.049994250169118,-0.0556116510254937
0.9308267253453094,0.6594020118996826,-0.3185241752805638,1.3532342120016008,-0.8215500629876277,-1.259044573162766,-1.0882725516514422,-0.31276322256112954
0.19120211148374333,0.42242803001761575,0.09654118061497646,-1.6654603594568744,-0.0780270967202545,0.2645724354257509,2.9285216197578143,-0.8722705871009748
-0.9772677097373382,0.9319659187421014,-2.762875925522015,0.14700674269776395,1.1314941612698501,0.41481319580498804,-0.5133481636104958,0.5281387864508496
-0.2203710095399073,-0.5647341080347182,-0.6310987522360878,0.25449047244553524,-0.7885021799980526,-0.6850943979539453,0.17601438857946242,-0.006399058940160375
0.12751802065780396,-0.0963763379245591,-0.021309665744731365,-0.26223655985667416,-0.5460585316894148,0.17068467876790658,-1.771031643987897,1.5631350620111149
0.20679801871538278,-0.0748884817295324,-0.32874429198629096,0.4656989712672153,-0.529904918650299,0.48178935447136356,-0.7332848742142252,-0.9360994906509502
0.1856697972068135,-0.1115760389801285,1.379705565673428,0.5414117209881846,-0.02399392685702771,-0.2712752573599392,-1.178975107653625,-0.6333113973750528
1.2605327643506428,-1.0641509860816476,0.30564888512089083,-1.1240552639339996,1.7023512051078915,1.2969464599277154,1.0170977425432277,-1.5656268848453614
1.1729882068886253,0.0022910295589632992,0.5693878434745793,0.05327758801277549,-0.7412327788575479,1.5038012551356121,0.1611126428646517,0.033053821998287214
1.4393663653874251,-1.7817500621574875,1.5972995672084866,1.346743946583433,-0.361948715728285,0.5608741211405579,0.6281217689842296,1.8853687251628828
-1.1758684637126542,-1.237902739116287,-0.2677115550896847,0.5519494136151556,1.3919724690734405,-0.06103594961572696,-1.6941204762280424,-0.5158100426732075
-0.7011257715363048,0.42583644154976796,-0.03589862647759969,0.39693133338042624,-0.21877078805079675,-0.1686825670862785,-0.724724030431993,0.19868133188246453
-0.01244835592247861,-0.3730774418622147,-0.6537153696363888,0.4418434484360246,0.11128322744842367,-1.2274807450904626,1.0340424267977295,-0.5173799660070707
-1.2840365860409644,0.186708310186184,-1.170283370539479,0.4939539181498357,-0.5541673318639936,0.26481230463773137,0.6964482818842548,-0.9436074520227303
0.18275917637138187,-1.7443378136126209,1.4532933054592587,0.40804298053339244,-0.7518642431467725,-0.23078292865881705,0.040466024410190586,-0.8066596932943234
-0.3407504716381641,0.38696829210582745,0.9045261853302686,-1.9406630099654834,1.5547571471486177,-1.8849152123024435,-0.11108769644140086,0.31086062018995
0.34991471072664865,0.47267869197370643,0.04175160402225337,-0.28976353232889596,-0.024812619981672307,0.043225922103482854,1.6498562613541972,-0.5374537447962056
0.9740043798366457,1.5045412507705742,0.3798899830475582,-1.0193862829784122,0.5628491058387,0.4150629448974774,1.5313469441553975,-0.27637439619926674
-0.35337636406281975,-1.478761982389905,1.1024986782489574,1.0532713282045008,0.01712329832438819,-0.16273382421442345,0.34679402170203966,0.8249828454399581
-0.8285375899897474,0.5430400580434309,-0.17782587903840036,-1.729791039690179,0.22791548563233416,-0.1844874339113319,0.1710503689659231,-1.6973267433389647
0.08804422039189662,1.554313771895258,-0.32603983355491284,0.25737618243933325,-0.708361457763281,1.9040899035153922,0.24949211505997648,0.5328025743870904
0.3111713664848202,-0.2830444859414542,-0.8038386723898958,1.4650451190915077,-0.8000456305198403,-1.5501195521323827,0.8724786753826854,-0.18171864735596502
0.4616741576411161,-1.6373689268776812,0.20764469777346567,-0.7282607717540038,-0.41085177315240673,0.6854826086798792,0.5329730681767667,-1.8130599051176617
-0.7065455701587859,1.3414151492319906,0.28085243411936445,-0.9279706151075525,0.23401018262450893,-0.4460169735343943,-0.08840489920007125,-1.1272325095309177
1.152103841177941,-0.268712561887105,0.2532855795490014,-0.05805751306819699,-2.396134832046992,-0.32177751593656995,-0.07106625805097888,-1.335025630304508
0.86887023215878,-0.10267971615458832,-1.0054976393770034,1.1795643207818627,-0.20371966467465746,1.3056407838253568,1.0132180846400356,0.7125225474421439
1.6753813846982468,-0.2861096129029347,-0.44998686124552284,-0.6831898568104483,0.48702983225036206,0.6556425897423513,0.15046005089941927,-1.3747223090707283
1.3333096419269423,0.1099421047717796,-0.055542916558789276,-1.2527693626075518,0.031171969432743144,-0.607615924632423,-0.5035806725626714,-1.666840492619734
-0.5712367020433287,0.7760588691944061,-0.3286147861109501,0.2797231565102583,1.5888698459137034,0.4060806111906162,0.22437694270987982,0.3223843144179508
-0.23313906105106552,-0.4286555116950908,-0.3372731176407611,-1.4994529682251418,-1.057086212781119,0.9319925288831555,-0.6072356503711888,1.0798436605793071
0.9270903493220365,0.02813207434581585,0.9227572149053205,0.023619688968482037,-0.24114703661755266,0.7901117589895208,-1.4876731900134261,-0.02187681843612565
-0.4043158413649998,1.0887650410251528,0.182449505016931,-0.6710027760707423,-0.31704985178547224,-0.5211508217210492,1.0869352901501215,-0.5685854831481238
0.4785882968209184,-0.46550135889868743,0.6645068677575062,1.1024656537692246,0.4464327966105235,0.7360426790742898,1.4400879594294098,-2.056726294551344
-0.34239587538650684,-0.8457450012187478,-2.2718936527815576,0.12357721154748945,-0.22976691640296845,1.0870174211343018,0.783364293723502,-1.6120081517716556
0.07016710316001122,0.19461315268704552,-1.3311387751265997,-0.6714461061683747,0.37533413923817005,1.4083657893767332,-1.1062694209229598,-2.046768765281172
0.6180681789923436,1.1493910244829906,1.5291902959497552,0.12239090378400716,0.20066359572437112,1.1632762983023313,1.0099393010718598,-1.2329028981438892
-0.9112541578010603,-0.5538511052810785,0.5284717604572541,-1.6084521592164935,0.3681644567183291,1.8636548616041,1.3896482502322087,0.7738101922364015
-0.049920631567800224,-0.09903991483751973,-0.9391020567389622,-0.8607348578549924,-0.2619624171324562,-1.553981880551176,-1.436005021066085,-0.11968061212808938
0.26141186031676145,0.08429525924131245,-0.2996596152002202,0.5061211094256485,1.374507163561549,-1.6255071095726459,0.8595453753651268,-0.6309585607121763
0.5144114169262706,-0.6280946236441582,-0.881899709231673,0.4003209686104696,-0.20010420747276758,1.347548377564573,-0.41474138314528514,0.615878472769727
-0.10730060677380156,0.24613601360584988,-0.7643630141094162,1.34994708171201,0.3557977586258262,1.222011298841328,0.052617524600558116,-0.18753135136129925
0.8457563427792365,-0.14629000735288014,1.29922502161228,-0.07740288139526195,0.8441711341201591,-2.0944933746326555,0.2862939613990097,0.5930199302237155
0.11694671099439675,-0.29630287577876596,0.41458026778287027,-0.0831331165937549,0.08520700011526071,1.8388804680819197,-1.02929390082075,-1.4217077727804164
0.7544277229262838,1.1623689595489044,-0.0677455250520911,-0.5338758538907539,1.27725103209883,0.7477450802913719,-0.4671475490544091,-2.748312319023605
1.1444578876845146,-1.648652166398125,1.6802277077865921,-0.03271597887094881,-0.6281082119430081,-0.5904348684453898,0.19082064943011887,-1.3353407591996076
-0.4854216823668773,-0.18315111705420775,-1.2836918333254512,3.1335778986882,-0.17882123278794526,-0.31865283093543634,-0.8289263617408484,-0.3811524398495426
0.6574828639386783,0.21511605772785453,0.18562581824119578,1.1084578995450085,1.6359223996684376,0.6616748497037729,-0.9168246473876434,0.3756440850170747
-1.164133813878663,0.7127881235768527,-0.9882293012987068,1.6653122206896496,0.5817359180591226,1.1781064066840203,-0.05319155756417038,0.7284697074321376
-1.6459393827005255,-1.362517803325456,0.46053225090542976,0.14057250315987624,0.28570752862070303,-0.7553485459771192,0.3154579359738743,0.5098235947266294
-0.8565022870609276,1.1940113611313903,-2.6349976360423573,0.4609072461783686,-0.0927352149734977,-0.5537765534815488,-2.536621798014602,-0.17148237673125566
0.14156216166206492,-0.21895662204249605,-0.2307354161884791,-0.5470575583039431,0.05092745586186699,0.003943213001518335,0.5399991998591195,-0.5115055426186833
-0.010320612563066723,-0.15664895638184637,0.2540617556623953,0.0492600406751549,-1.1679280931963996,0.3345356376658208,-1.116216720152784,0.81281382265287
-0.963589034962921,1.0783051465581042,-1.7469058801185808,-0.1429000723278421,0.07020837522527694,0.4403286844221828,0.10869839093107161,-0.6941546755668923
-1.204785221660465,-0.017478345274010865,-0.5084459875740618,-2.3801248046059955,1.3049804421893823,0.1261840401009375,-0.6399590517928814,0.7565138391934604
-0.9038046131559172,-1.1076891334562073,-2.161739327292092,-0.9727971952960128,-0.2759223442292307,0.32752192376707195,0.36061147235258467,0.04669311680492254
1.61725514640284,-1.2148864881470471,1.6171290692245963,-1.9731646572414798,-1.9807298575838874,-0.190081950349619,0.2702645347694596,0.848875107143073
0.16569376138673986,0.17877994760408217,1.6919594754265075,1.4996398538015596,0.8794884648084267,-0.3991978286629238,0.795714871238835,1.7619377538717327
-0.2182574052365177,-0.6264497143270766,0.98391088485441,0.7667601689024404,-0.3357666558414274,1.4598314992925012,1.6218605460338744,2.2539770143860776
1.9929137828478853,-0.1977999069783922,0.3496068775789244,1.2085368323451908,-0.8558896499482785,-0.21736125145601912,-2.6135751801607174,0.43654166614752454
0.7437589363759601,1.1952754711765063,0.776877478494864,1.2136149281775814,-0.37326955920559624,-1.4846285406451958,0.9368528238804378,0.8000029568908522
-1.2006136760029638,-1.6189669064790997,-0.534151827564916,-1.4857088792110877,0.3132637792122128,-0.6346998783053154,-0.41991586154751004,-0.673268208534403
-0.16588276627565424,-0.12714541075126135,-0.1117568339811242,-0.6800055373543303,0.7498489214775627,-0.14901634064239463,0.1728654374607185,2.7062107819346535
0.734472307521372,0.6021270475953319,0.5079293198278902,-2.2503476378054357,1.5738570463829873,-0.7948083620112304,1.0421086055511546,0.24451612636766615
0.5883500193388088,-0.4010882749882243,0.5177725640070449,1.3372005766124668,0.29943928740427445,-0.2016440717106292,0.2568618963174415,0.05782218747220529
2.1603049419598706,-0.9194501038159782,1.5200914695256575,0.6849952160630584,-0.3471463308312021,-0.839179241344335,-0.16358732597041795,0.814293037148097
0.07314080992629464,-0.9368443083729394,0.642870920284478,2.0395505109364,1.0435081434456368,-0.9674044623358885,-0.1415181844197219,-0.03866370753619673
-0.24440325129573046,0.14403903859198175,0.08452950705448262,2.1871985814101813,1.315416754480796,-0.17654806898265954,0.8833177210832144,-0.15445261570910684
-0.024509881933960215,-2.0113144754404617,-0.09286182381505051,0.38855963596098936,-1.585939244431041,0.2880426383402289,0.3499368873854026,-1.5517040507638091
-0.44700993326395994,-1.0089975493043228,1.0009402899182467,-1.3888747170977462,-0.01944597144555908,-1.513129725695963,0.8447499080615697,-0.9764911947255086
1.547670167054573,-0.6731706371086461,0.2840537364885038,0.3019839454659232,0.9894689946237439,-0.35938084745543963,-1.351276366062615,1.4518789389515812
0.4684569198806551,0.38052742079048163,1.2953080879743326,1.2319449331910783,0.20481486176734978,1.7735781509368214,0.5733209344186867,0.9488379695640031
0.8755607974630446,1.049059578565429,0.5317232443789555,-0.04883476980049156,-0.66766123286369,-0.28774195771337563,-1.7591935685085556,-0.26714318304904455
-0.4105876652299217,0.7461622396993133,0.7249650500397982,-0.905646123863493,1.6203275019403247,1.9464632773581627,0.22456697458651279,-0.09928497528311507
-0.48070894102469214,0.6432799798742761,0.21076286918995638,-1.9111625617456014,-0.46329765014680335,0.32904062004407464,-0.48392763540764205,-0.4130228667789504
-1.120265880610916,-0.5165540837923307,2.3931023751767433,1.181024965889143,-1.1208257205463716,-1.0067660009249741,-1.1959060057878057,2.694450426434529
1.2388836153311593,0.9602140588448997,-0.7176834715098849,-0.06474962532543255,-0.24230179049260075,2.295345131713008,0.8727580932408393,-1.777607397742995
-1.1232948759132655,0.22172335653014438,-0.6170985142586684,1.6944063618522394,2.0814834695942013,-0.7610009199410267,-0.6365169638702082,0.2019915100287203
-0.3558354414462394,-0.8247615979908476,0.5749758727076903,0.6084359673918048,-2.345520184946171,-1.29129878814709,0.15458692347888378,1.1222231882045857
1.2501160612614048,0.5927081342786015,1.1980608173062708,-0.9988468437318441,-0.1987020580156698,-0.5269407742330907,1.413796356950153,-0.632945464303197
0.96585342702042,0.25122753291106176,0.08921109310193552,0.49177035451360573,-0.10567832395489794,-0.5666813684334095,-0.856733768215009,1.3734492772486255
-0.7606451045450607,-0.19177465096841204,0.3054456599766188,-0.3547374803322239,0.11990734392282239,1.3827118054075647,-0.022212662340343952,1.18528257845452
0.255184498805523,1.710827765064961,0.7136444044369814,0.6939508433906245,-0.5336144843644407,0.4390572050197962,0.08431240622654051,-1.1812913934974294
-0.6337633919902186,0.029032159075358322,-0.513435121584598,0.47117151884898845,-0.3018368512112021,-0.5130547940407214,0.38836654826605405,0.07031910001207976
-0.48053244119929284,0.15786438534146488,0.3041365355761512,1.2079856447240922,-0.7003819941058032,-0.3460767819199782,0.2559252178168141,0.5244230407464383
-0.28896798957128544,-1.0169736699158622,-0.6968909227734884,0.7233905811339522,0.4913208562266135,0.11087969623016487,-0.5777086060197074,1.3447456724582572
0.39228388592049934,-0.7186769473727743,-1.1930752250281382,-0.4894970470554525,1.1999679193450155,0.4970259985723849,1.1160219318966118,-1.5803651185529788
-0.505935305970063,-1.2299573862115525,0.595417658799418,0.6408893681202726,-0.3182411836672797,-0.15934437237499158,-0.4176525816605073,0.728336678513178
0.7225564755313302,0.43757087895724217,-0.8544790758954978,-1.0738947573653277,-0.4545211823751472,0.02398761989930442,-1.083875937733798,0.27440508956990944
1.016227575534423,-1.297917269374336,-0.6939051244932745,-1.4800551344143957,-1.1222461413148446,0.42669795990250087,1.3243704755187544,-1.8519757733313873
-0.7637604887965126,-0.7725796594254948,1.0414103643330819,-0.024102000923135695,1.465447384185835,1.0017786064688243,0.2597316768514798,-1.0512917092966778
0.5229933054113616,-0.3184584836867243,1.5784954736242827,0.12476795259358543,-0.45599173190241465,0.12904137052539033,2.619881256780842,-1.2226381684947394
-0.6157122919978488,-0.9350442031525248,-0.11698873136062872,-0.5564410891897428,-1.4395849410840236,0.637362212695821,0.047625058542615416,1.5880844885383627
0.6120833369527412,-1.8623862780855511,-0.8043742742408109,0.42739124232395326,1.949542723150732,-0.5198657210905023,-1.5334967557412935,1.0448629953473603
-1.0205221243789926,0.07915595609158,-0.21569542662628688,1.4235959638850884,-0.10865915925014413,-0.9544943255287256,-0.14631626639206166,-1.1098638443877245
0.26138366807372776,-0.5772960648882136,-0.5645054303201286,-2.0827844201782955,0.21172038498126408,-0.011806503876094524,-0.18389285020910182,-0.7255109079986218
0.33608196677068924,1.9147752714202062,0.5624535551266946,1.4361170879555454,0.32884235559675534,-0.6346698693924766,0.8187970065710107,-0.2270943060423501
1.5285808084948869,2.143706361393662,0.9472258847320525,-1.036721288722808,0.2568123177352447,-1.0562332977463034,0.06891421695004689,1.2963169122981417
-1.4178899051343663,-0.39594373363920227,-0.6574663704794308,0.39094411464832957,-0.8395388630032028,-1.76010921846771,-2.3202046346962892,0.7755990714408848
1.2019068443084817,1.4752392296432508,1.8985132054901448,0.8361033131019943,-1.0736639314873915,0.4906225387012609,-2.117824018394204,-2.398698133318259
-0.0946328335821236,-0.7572657810854834,-0.23684452343900733,-0.38096402233783017,-0.43243751511264156,1.7668256854792914,-0.09290544680952695,0.5240333577547202
-1.356229943835772,-0.06595731286202353,-0.7876765508121526,-0.5591935448661837,0.023462034740199218,0.24152755670661025,1.3611281500627226,0.6499864394772239
0.4193191851334266,0.024905283932856816,-0.4003889137062268,0.3550307930146762,-0.9372639761739235,-1.145604359891826,0.35708795772530233,0.6227898014188563
-0.4082710868432611,0.7164397794747643,-1.2094150396924672,0.20277315267097737,-0.958305810841642,0.03770493452925643,0.9439864816307469,-1.5452466385579755
-0.30388137152377354,-0.8710938507232392,1.3877120663628622,0.4304381441012034,0.8643345749149287,0.6725702189242513,0.5003360943716831,0.3449341899705537
-0.002194882687875315,-1.5245386334919968,-2.797850686618525,0.19788926439597254,0.10575201509106909,0.18834990839785198,0.20596645205220887,-1.53012434059978
-1.6192621915525014,0.08840051890657516,-0.03914372674689436,-0.7309283574144912,0.4077432968644907,-1.2690316231463152,0.028028152721564736,-1.3693213876865904
-0.6853342210279407,1.0439079649093403,1.8971301144640405,0.45981272526357053,0.1533744823265995,0.5959781035668636,0.13807490944027756,0.31538480799850604
1.1085229703746486,-0.752177839351425,0.8896566003112908,0.7226609761947375,-1.1337206898504004,0.31532189025967555,-0.5932827881348645,0.08034268621577814
0.6608260957031823,0.2085625751435777,0.001920453970882804,0.8212331585585418,0.05677875021347909,1.248006657982937,1.0448970905845592,-0.41459740312201476
-1.9112351589155878,-0.26841314940964056,-0.008205570183881601,-0.37048794976056254,-1.1290072557503623,1.4323586057025637,-1.5630408974672685,0.41535867487374634
-0.04302990097509527,-1.4342323898934053,-0.2038773557634775,1.0660576689176169,0.20207216218393703,-0.6322098702913096,1.1155039057824172,1.4345085060721325
0.9643665680412453,0.4612166527943899,0.5272126862486484,0.25689482679562187,2.0441839801825696,0.12997889066958182,0.15047739178043903,-0.42717787900493925
-0.052389353533766087,-1.0560623620910348,0.4199169900498304,-0.6219575549793748,-0.5825132174292308,0.12211191211406562,-0.09691095566948471,-0.6247266649012655
0.5900204537512381,1.3626599289275574,0.19295312628337802,2.423174264431896,-0.26232368866000305,1.6083906381531536,0.489152392456837,-0.03561487733903955
0.32612763588981347,0.31780622003300374,-0.44955107689956725,-0.23154718544599806,0.30085455432995617,0.9939048188894509,-2.0189892407015426,0.8712618499813939
0.6253950646837425,0.34598766299218153,-0.6067652701762988,0.18942458813834567,-0.1379688770439161,0.24396007061661018,0.08466193773902557,-0.1649641270997127
0.8222243580090915,-0.2957035295224699,0.5521930667796648,-2.0499370961872376,-0.4912236736905717,0.2343791963784184,-0.19483950464947883,-1.2060002608336473
0.30127714844561215,0.8074135957582853,1.190043721253216,-0.6741483314848775,0.5417765090691535,0.9607724164961595,1.3435600366584828,-0.3614719295498921
-0.8572381670324096,0.629983372255757,-1.6730742644025827,0.3048291827715902,-0.8503291983655488,0.36238894618247114,-0.7589246521546226,0.9675156759189243
1.195746933340391,1.3153372725847738,-0.6474261416315874,0.44508165410943723,1.4104821744807952,1.144256359020543,-0.8436813612872265,-1.3456829327694453
-0.5361767216903529,0.04175685545787854,0.5119939426859718,0.3190770296290011,-0.3243583598273803,-0.05266487004643738,0.3353618457985858,0.7359175885551931
0.15117219580293775,0.09356865730093783,0.03667250044451196,1.6148703531278519,0.30232620365952834,-1.5426966615984128,0.30143546287974055,0.2821544662379406
0.5385347782886772,-0.3024218893309774,-0.3848359848564609,0.039628421340446536,0.06930332810169298,-0.08200264611007603,-0.6918679715014351,-1.431710444730009
0.6142791740295444,0.15757857396816352,1.1788535575150942,-1.8828638316347954,1.0511242987553084,0.9537564537484987,0.548844725515319,1.8567366985426565
0.5071291581179989,-0.7512269484156244,0.8467456237747935,-0.5232491420545091,1.3735574459617372,0.607938030380195,1.500112342007084,-0.9186664833245025
0.07051778557478694,1.9086345614138547,-0.49748678644450417,-0.17147809615720253,-0.13928010598673546,0.562964063373955,1.5527183573466052,1.319528959358111
0.24205317234434523,-0.5601175897138382,-0.4310126713083785,0.3970954570537841,-0.9724583503883584,0.2556699416751987,1.658124494517215,-0.2444665963271687
-1.0610311569250093,2.1215976768188693,1.631189699109289,0.914649674560099,0.2489048667177393,1.0822574744215552,0.5338524196510492,0.5227365459702499
-0.5887125660009667,-0.8409967080719181,-0.5373181872736791,1.6446887956561744,-0.7837430773397036,-0.9077062825945091,-0.7116433515618815,0.0009385207732468367
-0.32779878424964487,2.2337045735349883,0.4574268158506811,-1.295854726191226,-0.19142216769301973,-0.18626256689631565,-0.7824535642463425,0.5394234126895533
-0.1623303415216025,-0.1979262824201761,-0.130655579929872,-0.872901031196731,-0.010509704801047187,-0.6404022427970719,0.5666231717666023,-0.18510355505547896
-0.2572776769806134,-1.0864753004769294,0.8652859625102932,1.058829934996189,0.25469139500498067,-0.08610619554390966,-1.5544253972620228,0.270073299022896
-0.18010830981250758,0.3695960431873143,-0.8411514529011616,-1.2969502870692764,0.15111999071380303,-2.196144552031386,-0.6501078876279317,-0.8202425515888203
-0.7907545894909834,-1.0080819104654812,-0.15307658322539458,0.24769501765381524,-1.421080474372759,0.6279718294275163,0.09009604286377008,-0.3084147513497932
0.40673942806546953,-1.9256116896552717,-0.9090169041537395,-0.0004134840897581047,0.5824497333679105,0.4361621071088008,-0.8414548070758965,-1.1046320381199417
-1.4351747628442526,-2.134042044936393,1.3814620544179526,0.8360415483935937,-0.8153004767512259,-0.454443482185022,1.4822916026555415,-0.24720195629989444
0.3464884214247034,-0.1416840317396997,1.8931409106286365,0.5399645766429227,1.045899169059081,-0.3477568643388039,-0.7202593775526305,0.07077737219782053
0.003954227734890764,-0.5549324974126034,1.3945546157054889,0.07304746647099783,0.2231974827924657,-0.5721226108698907,0.24529746346217388,-0.12310870511300198
-0.30124620912442385,0.2026611098341968,-0.8814774943235564,0.13628894450195558,-2.4346306144624403,-0.060219081011091545,-0.9952290186066792,-2.7100680524261307
0.5295122569898314,0.11383714614509166,-0.5987487338000516,1.703879809748856,0.42043981797163027,-2.2728922938869216,-1.3497687544430728,0.8141843939271753
-0.21872631485735175,-0.6386883136519959,-1.222613813824389,-0.38894353378781066,-0.7574712963117856,-0.37488767591182903,1.4381926247819405,0.6297216081018804
0.5272392029542032,-0.33894970831347904,-0.0373352110006338,0.8290247604013702,0.7438781894151422,1.3560412126632106,-0.056570094296058256,1.5242053663644781
0.8598395621765986,0.8606023917419039,-0.2271275220301731,-1.0041930427913035,0.9301366572754105,0.5003342629944039,-0.3020727554268203,0.281808685184619
-0.32410607122442536,-0.143517200212304,-1.9859164784683359,0.31395803111865345,-0.2544931890595382,0.34035503079081836,1.0604504647942754,3.719232508333801
0.9119958566823725,-0.842412253830669,1.0861035913411274,0.8026989813487473,-1.8565247364694564,-2.7057170376890185,0.5757374630723467,0.5142617422229332
-0.31826478550660614,0.8098961321906489,0.8368098197638268,-1.2769502532068033,0.6173566273654171,1.980935104052057,0.5323521250687481,0.7075477312574823
0.30479381257997246,0.1682067506564485,1.4750401111943052,0.09022836848560507,0.6889722305595811,-0.750343890827654,-1.3363178825742723,0.3063048723115371
0.04081239222110585,-1.039439672344447,-0.05090963453678878,0.09500998209419106,1.2170185154038435,-0.17239961852542723,2.5252952527794665,-1.2734279428148534
2.100442548789416,1.302329337241288,0.6918968256418748,2.4334392218885754,-1.1193897006841271,0.5969364802066374,0.7974843681421281,-1.5298387699604692
0.005538893825607389,0.2558432880452336,-1.4863798477410715,-1.3947596470386443,0.08950681549109075,-1.1960372096398901,-0.6073909038073021,0.1451471632751359
-0.22611940050102872,-1.2154239945582592,1.9248445627368789,-0.12396680397556496,-0.9133614601399836,0.7098483585148143,0.22935369642523887,-1.368390667939022
-1.7116820114184066,-0.5789481240715411,-0.0901687774353635,-2.6903894121116085,0.3893187182126156,0.039339145797491405,-1.0125579847711437,-1.8926854657682817
0.5698955442772753,0.716084989205188,0.43562456619916096,0.789680287503782,0.36851705672491225,0.505585473616636,-1.1682313678084155,-0.6146581150949583
0.06135560280438101,1.0521924431968002,-0.696606577669566,0.044638521233752615,-0.6995256186302121,1.2505174420473997,-0.027896273356086496,0.1181885965004305
0.1687846017161376,-1.5494138993423874,-1.2227421943139867,-2.3587575691689007,1.2964648721892116,0.4465676876597336,1.0779854474706752,-1.0289322113964465
0.7101135568967281,-2.158396540912002,1.929530907625574,1.6493796225957151,1.8539171665144751,1.664871296470247,0.38380937945384286,-1.2809480943502887
-0.6584769830345573,-0.010257913432314133,-0.03658928755984282,0.7394450802229953,2.9054928283733386,-3.1407609892556403,1.210162433539639,-0.7570248175417278
-0.3132845876564434,-0.40648895343001823,-0.13977356286282916,-0.9304278300431071,-0.2957194256028049,-1.814238273162033,0.8823106107093593,-1.4164241625522567
0.3012613019746345,-1.7812275577327286,-0.5337009787948495,-0.35067857532041063,1.0943571331347028,1.1414616014340426,0.5886829373094249,1.0030425205303493
0.7616053207143455,0.2510826642440987,-0.24075205078273318,-0.12361372362020633,0.40111927900926897,1.3265787320934657,-0.7859005198521918,1.308334547563989
0.6446344595601073,-0.6597514791936506,-1.6479532471060159,1.2920665083027818,-0.1270192249184303,-0.10038087321115546,-0.8454648316014375,-0.5443718279809091
0.5168668460240383,-0.020848732410330594,0.45808994835035827,-0.643680136328211,-1.2078281488179403,-0.17759322937797947,-0.609831326713282,1.390347528254745
-0.9119197358359731,-0.12026298289881927,-1.3238080322242447,-0.8766892879776265,0.7681812616494337,0.9897333885520916,-0.12015019327453233,1.2916715924993967
-0.7171484206987766,-0.8309623922156855,0.3054616044574327,-0.18851952659567214,-0.3906899216539693,1.10944574526362,0.07112883547547816,-1.151430528883255
0.5510678241907202,-0.5940638661729132,-0.41336061175123645,0.021739071640416132,-0.48199718487218546,0.02172302997335692,1.3538172706117273,0.6304147070474272
-0.2704350461895782,0.9815416585214402,-1.1873164077071203,-0.738328432482088,0.8292203183639881,0.22050590689679914,-1.0144297303804566,-0.5078017447280953
1.215059707491612,-2.0887417007051523,1.2248698852331825,2.209623236312286,1.2604212296933355,-1.4372793547253737,1.5164719930606945,-0.3489714483988456
-1.96927418059793,-0.6420125867858522,-0.9537450955021388,0.749978910390425,0.11907617374502098,0.048184152064431794,-0.8812827849776184,-1.1477668364797127
1.2695439340605776,0.871721285245717,0.421707300504212,0.13016312083318737,-0.0037342125839865807,-1.6888730199161723,0.32808239645310994,-0.04520330933627365
0.2903367102806433,-0.8195080051110848,0.5666216625333871,0.3790698089120297,0.46107773556848486,-1.339825806582552,-0.17637965269799905,-0.53301257081888
1.7084542628340953,1.628360757716646,0.27285615326379686,0.21123282505197716,-0.6580773673600703,-1.4509810829357461,-0.7788809351593213,-1.161498929434756
1.162079037861738,-1.5329328960537332,1.1781753466050051,-1.908648143810979,1.8839978102940687,-0.041817075477522524,0.05171234552122082,-0.7626013732168451
-0.26178611967331733,0.4242791870981961,-0.5114566796344269,-0.2662435958914086,1.768544065103906,0.8008939126842982,-0.8880938434005026,-0.3361314825898421
1.5708823979453463,1.408470249471472,1.4678856117033097,0.4016445454329507,-0.3266899004039892,0.3495932135066663,1.8268826778164167,0.6015583557263362
1.2608124961660603,-1.8401249850135195,0.1337647216027013,-1.0196150298066406,-1.1533204081075303,-0.09046512104951861,-1.4930437246286719,0.901449334321854
-2.302796272420156,1.1256837229744792,-0.07314785068848109,-0.492803911505533,-0.2921230858556601,1.2642896756004927,-0.9993887510813395,-0.8273895657335036
1.4870957880259341,1.9724927300248194,-0.3506774292078144,-0.37028413594831033,-1.7220664416488316,-0.14157566141113787,-1.3493608096101246,2.1794622158045622
0.38459674700376467,0.061340850283555355,-1.1839697669826728,-0.7640300411539949,-1.3406984457954083,0.040469278444796655,-0.557626014740257,-1.1202667435333493
-0.5658442534408131,1.1965595156057112,-2.8937417164002746,0.5619980226924022,-0.19965985040719894,-0.3254980886779201,-0.4718807486128223,0.11443524015057632
-0.44463866741915203,1.4193162614799675,0.667277454518352,-0.19379447327046437,0.3222803186964302,0.11188758236250529,-0.437287058170596,-0.6491573457889089
0.3694959260236294,0.5689985225105323,-1.062647841186268,0.12175735833159827,0.8024818482697672,-0.19024085898542695,0.4788156589142219,1.205651392677432
-2.1491778192581084,0.8240154776885544,-0.5352528264563349,0.3403904405445161,-0.6393554771123438,-0.21045035981379884,0.10825847035731677,1.1371198419862603
-0.6417027302737186,-1.352642889434357,-0.11559862252764831,-1.0724038104396412,0.6267358030998208,1.5722377828754879,0.33508945094017983,-0.36870776683984396
-0.6780399767643492,0.7270574645704746,0.5934957505966052,0.7950172774512823,-0.889751770943441,-1.5316458891715794,0.07287029145122788,-1.264914639184172
-0.7395266426349982,-0.5298314842390043,-1.1221163248583328,1.9635234374864339,-0.3751358539822072,0.2570527228900738,-0.7967842219830021,0.33415457258981823
1.0617378659505603,-0.5451746867481795,1.2251252456826052,0.680883899345775,-0.42425768906875394,-0.09106278678948485,-0.2994337663893928,-1.2914576259597539
-0.6240364731393058,-0.03738047251254402,-0.07809642288606415,-1.2675977745611466,0.6275150922640105,0.9535956239020856,0.36157491592705293,-0.8562473411597918
-1.1165100722869499,0.2225157502384587,-0.17311538473108834,1.9496781173653983,0.6492020271884108,-0.6922598757910013,-0.4244325930177952,0.27413554237996646
-0.6107912643728297,1.4565049314115104,1.3293759853055083,0.26445665279124403,0.6680740765096798,-0.9008299544223036,0.14374044113140053,-0.9562455807417231
0.8637418410078664,0.5280858549830453,-0.33446160457498253,-0.36452879833991164,0.8238786020904101,-1.1250490263198052,0.6545321015222059,-0.993977579198176
1.2894932809164696,-1.2698319734107493,-0.623163583597134,-0.8710165655340458,0.827083926107379,0.10768120166923997,-0.2502225431491189,-2.0893506050101336
1.0903458585014276,-2.018309758926786,1.55006908312004,-0.05642158819577085,0.7672316039570127,0.3319484309885396,-0.659789533498586,0.0754904784931998
-0.15674145393265476,0.4876453274617352,0.05440705829769333,0.52799846113922,0.74305269423804,0.608741118909737,-0.6372149826808738,1.7345433667678352
-1.0946001821883706,-0.21620582206948155,-0.48661340068818293,0.6144108032988548,-0.20865710800015003,-0.11855703477815452,-0.06545680213692173,0.5577522958450676
-0.05411878854044647,-0.06333057744823056,0.44415108723188423,1.6953332656327982,0.0960370552035548,-0.1245006903807997,-0.02013166613676199,-1.2618132229100825
0.7030251897600593,0.10910023149670922,0.005932935037083715,-0.6337300175875252,0.980972319826129,-1.065150754889317,-0.25814223153281857,0.7973896124427887
-0.600586277155881,-1.8341748858012956,1.7028168616433474,-1.481939857390197,-0.39092095614853445,0.5247916109409339,0.3219578403851681,-0.17979015263929762
1.5813516176193303,-0.5143113925818511,0.44305818216736476,-1.2396001450269272,-0.3693464835353258,-0.30381613212017866,0.18684962972180483,-0.9054640317050087
-0.7906770865430687,-1.4207743159961446,-1.9449705132917607,0.26253017359588005,1.3239357949726587,0.736996389083392,-0.4663686167513222,-0.7084540093865374
-1.344307816803438,0.2928377228447233,-1.2109820291506754,1.504004314266187,-1.0899500847786554,0.6279928629519659,1.9053040699014387,-1.9061568929538268
0.5812526663033867,0.017201168281365715,0.5370578178903268,1.3067161303203763,-2.634297914966854,2.108430799591221,0.27832300921196695,-0.3157863479860716
-0.4015042146267132,3.0482040126470196,-1.5008387094217284,-0.47962079535588076,2.500924487668794,-2.2235780630391133,0.17694438724778977,1.397378243674041
0.7524325117177344,-0.7183526108388216,0.22865734597274076,-0.1685849970767077,-0.5821517205298589,0.8522325298643787,-0.5788347131913484,0.4426927304388001
0.2152884613030794,-0.23492223750101518,-0.5752054943617987,1.532259801070368,-0.36396260920455553,-1.3684940378997437,0.4109143619836367,-0.33401784769934856
-1.2139034414734717,-0.07458941489146377,-0.0005084422672386774,0.1043987758536074,0.8561015535451404,0.17213768363296922,-0.5610287873818334,-0.2529407334271614
0.8238871839582542,0.37797579790819624,-1.5817853630428964,-0.35341634713513453,-0.8937342932808474,2.991146822088079,-0.016076913963803233,-0.5739713089201024
0.785435725740912,-0.10911232312107293,0.802256570210147,-1.4191720692970418,-1.543032295595266,-0.6105421338234847,0.22574260101659602,-0.0880852009026896
-0.45189714111559565,0.35402030046897864,-0.48163184667204445,-1.2433780187162284,0.0782422905570154,0.7684499626999634,0.12860496111779507,1.2282351404914786
-0.6637016502613384,0.6936375565561053,-1.2402946000500106,-1.392391915781053,0.980375084679921,-0.18684730625132676,0.47587421449827066,0.7603279793588599
1.852680535360895,-0.13127852956670708,0.3224984015775654,-1.6991300056915728,-0.06386656202744385,0.046569187988266404,-0.012230163775248586,0.12092978814249665
0.18509890756491346,0.5800745882037844,-0.575609002226484,1.3379659826309842,-1.670635159001096,0.2274891566446688,-0.4781555092018363,-1.5462606367496885
0.20870580073909653,1.2252834307483795,0.07465134715245708,-1.430906859243189,1.4347092273388216,2.9923946512109403,1.3193474174851323,0.3033439547687995
-0.4773137343178072,0.012092368916468052,0.5018751547833932,1.60282241096738,0.4594068372842389,-0.14269370554614003,0.25587253585886643,0.22687068785420528
-0.6597058153409799,2.2048529277508155,-1.5314981180854628,-0.13747126133537818,-1.6211265893935478,1.4032711806933973,-0.6159771024429485,0.1684939463955751
-1.5596002834538727,0.8955104658094272,0.09505282847032072,0.9684639283657127,0.3955165095972405,-0.5268991435252833,-0.32706252669499813,-0.8225992322947588
0.5166559678998349,0.2831274580087631,0.5735788043946359,0.41143859682939865,0.32750577556089167,-0.0032696107081492906,1.380654008038423,-0.004980698345517423
0.399976122129573,-1.0694670381776086,0.9126211091565584,-1.9319760360676137,0.14960413961570335,-2.172844887163631,-2.219353374430627,-0.10271272135667874
0.5640618638530508,-0.40435850798921974,-1.4157809002637864,0.003685846445916545,0.8774200983241836,0.773675338666004,-1.221663043767877,0.4252740098451178
-2.0558261460120444,1.2509995110755594,0.3153466722359906,-1.8479709342409167,1.3089486848542626,0.2557624218071476,-0.719239826929923,0.7953645066643956
-1.2438841412240755,-0.3349243670052257,-2.216040648772181,-0.7348469792792204,0.5198184775897098,0.1076790538022483,0.5426998663255644,-0.18171904522417115
1.83851114602393,-0.4461628390144612,0.6264947012162497,0.234169080315861,-1.1494127933843956,0.7313852795707808,-1.3339653353357879,-0.029454416634427046
0.8738824906228267,1.5686207399437069,-1.060826735746275,-0.22942045039160155,-0.39200564203750843,0.24193146640953572,0.5143861408341592,-1.3072699929136409
-0.15420087666015142,-1.8292062788302328,-1.217066046947026,1.0001046074354285,1.0099919008001046,-0.6345607541526599,-1.1837849658664306,0.37044549988707987
-1.4905839402093968,0.9405242852479299,0.015616583430020666,-0.4401673297480773,-0.29460846075225994,-0.5259552025069885,-0.29555437307170307,1.185090538698597
-0.6797676263782155,0.3593335647202515,-0.19917628081842678,0.3560567778930061,-0.07089793093087486,-0.10408021372224079,2.74205077103519,-0.22436726913972554
-0.6738377398688499,0.15295814625790863,0.4275151350195612,-1.0593507510425508,1.4260933641264253,-1.5500335188213765,0.8878529788434498,-0.6122105466989328
-0.6533904278125044,-1.3729437034759788,-0.42055056798242146,0.22007393523512186,1.337949753208745,0.07359301122971458,0.08253301239451097,-2.0724673946223002
-0.5035631290297989,0.08520824947418013,-0.6193028765188621,0.5865846661095251,-0.8454356578638145,1.314657833734262,1.0754951557002457,1.1534774939011023
-0.9519312857314203,1.2549618757380028,0.7799981976371023,0.17587188470887039,0.7707403199284855,-1.315289634838401,-0.7444389344276787,-1.4046138212443589
1.1513100686218385,-0.8668338763744774,-0.22457318093593626,-0.013953021620621666,-1.9102658174737117,1.3851551170578877,-0.635254147534143,-1.2772604150841171
1.0276305432535264,0.4145692525539865,-0.871861682881446,0.20563295499234893,-0.4969790321895822,2.393271151287445,-0.0011623082746165482,-1.2294961178930353
-1.001879664856197,1.3050356888220247,2.1591787476299995,-0.21409804399432356,-0.6238969306235722,-0.42460863134141014,1.2458654148013655,-1.1811667619181871
-2.2016799674945413,-1.9971055451494966,0.4710098787556959,-1.6949688626350965,1.4036014423353014,-1.1276271870080883,0.20992615047194185,1.9061801677856558
0.37522343598974,-0.17625301217150935,1.2505836099255891,-0.5312774006378564,0.27875621329283684,-2.8682344705920713,-0.023709688526556822,0.6096303716499193
1.1957323267398043,-0.5463443019770808,0.4421585059914798,0.7041036446293358,0.4046072294601978,-1.3187854293417696,0.39988480187336706,-0.5740326711209592
0.9088756555563949,-0.7827069715048004,1.576371971507851,-0.3665977417414863,-0.6001000748041778,-0.678112315503348,-1.3798839075285705,-0.9427514694078486
-1.24338392751253,-0.4800754119826966,2.1315452006661255,-0.6139442809302399,0.12030236312847818,-0.35374164838791644,-0.39657638477498774,1.0338024302605184
0.18104122845646956,-0.22728312059951025,0.719438600341425,-0.8547758202918876,1.6238136575455302,0.4682915432294946,1.517400286219032,-0.14176203859938788
-2.4147151402133167,-0.42905026470139707,-0.44010320605723596,0.1729015922122629,1.3367746528051083,0.3573292592714268,1.3763728369191575,-0.6261205448736181
-0.20983678262642078,0.18405005696830531,-0.40827211520609746,0.5101887249070178,0.004574055801871493,-1.1758708940638407,0.4626545107253761,1.3246083956174055
0.41939674105419494,-0.879823809399539,0.4542881741125293,-2.111136379308209,0.2718407231363716,-1.5403638126516004,-1.0542739935462437,1.113784333812693
-1.6448830663988074,0.09957113367597471,-0.4697930653048468,-0.15668781708108956,0.436100763636447,-2.089191733601498,0.9948517174285948,0.3847921587430394
-0.8023627199086352,-0.8821714158028394,-0.2912571563408752,-0.8418841916682468,-0.5161446720976154,-0.0161282324322876,1.1434368556220857,0.2517045702480483
-0.22726308915421678,-1.6144186486228045,-0.7869685945837064,1.1822988439815398,0.40285099341037955,1.0164313966069878,0.6916954693342215,-0.7751187384509486
1.199591278979163,-0.6431170599078555,-0.3045382626172724,-0.5878650691059485,0.3809231432603374,-0.33446722863097816,-0.9712447412916051,0.5872755840851308
1.0048673109089863,0.5604984063903014,-1.0357006917419354,0.12839225183044714,-0.461949293612622,-0.13460041815657203,-0.7906926036569346,-0.5224263530740203
-0.39120746082299196,1.3456881144720432,-0.8536660513011297,0.04031377918760127,1.1701684535788672,-0.6455427705513165,-0.715109834520542,2.0693688206307006
0.45290728355704085,-0.9260547585433145,0.8555645031793496,-0.7021036028758043,-0.6016013546193464,0.6039307297268467,0.6086328751924927,1.786178942388452
1.5792266650224565,-0.6025444315880747,0.9388241828157567,-0.14322213237266287,-0.1316125421323662,-0.5796672562735,-1.6328975431779,-1.027372251392119
-1.0509003587257781,0.7723274531624811,-0.8384897507921658,0.63521549852679,-0.26841169066389137,0.47697566979602224,-0.9206197172075894,0.8713020680647102
1.2451044025182618,-0.7038881743357425,0.8171746386423224,0.36129276567402546,0.33086625229881506,-2.7679291726766406,-1.2070412135753954,0.6322283663727097
-0.7789694655491801,0.8678355876580651,-0.6903763333523578,-2.026767845775793,0.9367289194841806,-0.46594014882661006,-0.5126827916763275,1.8054155435322607
0.10310791996839991,1.27263319535316,0.9899711070733219,-1.7318455597787612,-0.1057472877841748,-1.5728073344471316,-0.01245675437493993,1.4324063148634445
0.5513727373667191,-0.22320847512559908,0.17369008385398557,-0.4116785909917769,-0.3480928996597672,0.4524193216280764,-1.118693847550241,0.41411459473741996
0.17701285686750376,0.026988731075493516,-0.17524000895683634,-1.8313021599243018,-0.32960648581335605,-0.5413198561885676,0.41485229595839923,-0.5245267017407723
-1.118884874283428,0.12190608727078829,-1.6005675509309791,1.3041550760095106,-1.6672371859827184,0.16377661017891257,-1.3771717849097795,-0.31911113558588877
-0.9376966693898802,0.20418783241156577,-0.4860419547537558,0.4210479380447062,0.7851929445263676,1.228667502275452,-0.14926726048157096,0.8476919308443703
-0.9004911422630756,-0.14477094477314106,0.29304493041177115,1.6328443168061169,0.7545104132877397,0.5359860715037493,-1.291300558741249,1.017380375855749
1.0826122401230358,0.8656300959052221,0.4423246270554599,-1.623906836438362,0.8332974732178475,1.3660792821154664,-0.7326323754884104,2.314307374243878
-1.168855551469537,0.8064975698873345,2.2064035615690734,0.4199556036205671,1.8013237968383424,-0.4179700166927403,0.7886159834734371,-0.5182168831049551
0.20658371618368654,0.44948269574771355,1.5774638118241855,-1.021010163515343,-0.5599684975203609,-0.0592943979380094,2.0014656804244404,-1.5365915409637625
-0.09227516503896427,-0.8284223540288485,-0.08490921141544745,-0.22687368159237814,0.12694836706440818,-0.3616514526301427,0.4184912341704242,0.14081746762930972
-0.6644830277875177,0.06073868544883718,-1.3251747672054008,-0.3605847819223603,0.33919614849043167,0.5311544339343108,0.06848111774420326,0.009408167046333836
0.35020883282768517,-0.3160427960062086,0.8031592894725522,0.11061136765577656,2.0657458007918796,1.0398362148028113,-1.2402955481861746,-1.3311830869984114
1.194700452746064,-0.11384766051759519,-1.7235254606481476,-1.2031859811729269,0.649984121892509,1.357563781677682,-0.39438483720054685,0.30071094363731166
-0.06142195802739571,0.05338660834760058,0.8993926615682519,1.2844159957264933,-0.988099372322186,-0.534140795485669,0.6645418397931018,0.8087113698628712
0.9537356880317882,2.154694025246211,1.315500154187583,0.006183941016640693,0.8612142917997208,-0.8524385223171506,0.4912228966698278,-0.012644006528677936
0.16267802474167414,1.2614666827872791,-0.44082398744528634,-0.31563837794352223,-0.5754615732530802,-0.5723600553223501,1.3049778190501753,-0.010731498315301536
-0.012327526955392916,-0.44174163059790866,0.8134039594663771,-1.119435464840604,2.307494586097303,0.06598509704800974,0.10243997580867555,-0.8125256706864693
-0.9515283480875949,0.249281049920687,-2.0446947618216513,-1.2355971427945713,0.19345717172895027,0.004371218316106874,1.0162081390764717,2.278942488080872
0.7777836516352351,-0.873913960061472,-0.6989638136110033,0.48028382021244304,0.3919198044706629,0.43667582895644735,0.17257927295251163,-0.39337185284404796
-1.5314230621896303,-0.3464351816653283,1.0501310978152978,0.10758356970252689,0.32947200592949777,-1.20391046871012,0.013731930183833901,-1.1194300742745884
-2.8027640467095467,-1.1488633118408282,-0.6703762886300635,-0.21513092670020073,0.24986443203632472,1.2451381384107172,0.4613905866507661,0.27535313176976883
-0.17675243190894338,0.15728427773916664,-1.80687254798244,0.2613878384174623,0.6634375030421781,0.947414482957094,0.23364548682813602,1.4889381507562105
-0.5873673638144973,-2.36968822279735,-0.6008309057891997,-0.35191336577753923,-0.2090238462071849,0.2199270941092017,-0.24968528773117626,-0.4190139448848461
-0.9440600269580335,-1.0003974222309056,0.5249702177773221,-0.5388021676900471,-1.0522822081234762,-0.9684702802441065,-0.23142823625209605,-3.7352265858847815
-1.7503940138544138,-0.871649976138423,0.2848831329236772,1.2093652003303872,0.757128014322909,-0.21429217015890648,-0.23797712465608262,-1.050682470450855
0.7153806444244489,1.2144783114372681,-0.7310072741444126,0.6833061540133103,0.12001697151927893,0.6351039081635131,0.3564346037929176,1.0536554990773677
-0.5578281926674221,-1.0967644923407627,1.4834521931718818,0.22419967018749778,-0.4097357594911548,-0.8104792424448279,-1.4056341677760817,1.2923789197390234
0.592759670190599,-0.311187827176407,0.5274799962815295,0.6899214480933646,-2.5692932444045815,-0.5111547021795372,0.6672897480047493,-1.3063341954853749
-0.420758641483824,0.6889933571178795,-0.2527351311116526,0.22423278534324875,0.8593665391476046,0.870554015894014,-1.6095164337843615,0.9975355382070131
1.516674518763251,1.5389487210388808,-0.7788878517343744,-0.4687651548616269,0.04998286362843773,1.050582982407676,0.5400203664446149,0.3736881519791321
0.5897086563241211,0.7066058753835911,-0.7997626338588171,0.2648882016897953,-0.09674509701587386,0.23195493959851088,-1.2896341585792328,0.9237832293930295
-0.42931650854369496,-0.6866590192436303,-0.26151374310447123,-1.085882138541839,-0.33464513936120854,0.008129902831104025,0.8141520999979344,2.5344560657337656
1.5890624653965588,0.18430127905026594,1.5894334295858956,0.09621837188771554,-0.9968919037228609,0.44244248258074753,0.043465601240071323,0.1243593353855105
-2.468446965680342,0.5894225753254548,0.7033482708608693,0.5092279076580912,0.9537732676973499,0.5726290285681525,-0.7023224416462884,-0.578997582929007
-0.3480263137455097,0.12615028476269732,0.5588437792534123,-1.8024422429022726,-0.6728372970233572,1.7327073145622884,-0.15910316459112,0.33108724130077105
0.8601776088542581,-0.17284711414408874,-0.6750493175531421,0.16117623764977765,-1.8238576439510175,1.1226415330973205,0.04872078137542043,-1.465551975288345
0.5679666870622839,0.323604235013995,-2.019236477109086,0.37540640368427564,-1.571996732383526,-0.09020767452979457,-0.11617484433700766,0.5219289697287647
0.9951397664739592,1.4452814940831764,-0.7149677826917786,-1.180735291433278,1.0293432054308853,0.44223822236957816,-0.24704115767793353,-0.9341373163239709
0.6463978549839895,1.4484875135003534,2.069281714308353,1.1535993668760212,-1.325983345530138,1.18569637162475,0.6216439524090998,-0.4425641900944209
-0.5876680951980172,0.09477543080661253,0.21919822269186479,1.2100098518455606,-0.05422014762078267,-1.1042465714398098,0.9509207844609897,-1.1365810271891785
-1.2485882801896027,1.7086742643682569,-0.5387645687002502,-0.13739690908923574,1.1716806797505772,0.1293802031006463,0.41174661629209997,-0.194121559418099
-0.22221623615567188,-0.3596930666540356,0.3000767900650349,0.42987072388667286,-0.4724624510303205,0.13689630583081136,0.6951352518069821,0.309934092495178
-1.472011805731312,0.5592570702831413,0.015609797890953556,-1.1932843066510297,0.739858112085356,-0.9793436601791483,-0.9102113184355449,-0.10513634718171963
1.6807741398494644,-0.7921218835987454,0.9851597692440379,0.8184404904441093,-0.08201316338627036,-0.08996984859938044,-1.1535699266751434,-0.9640033622868134
0.7148513880002872,1.3791143223039946,-0.8499425402225846,-1.1858087180186554,-1.4516880493803324,-2.153858308330104,0.46986904165123267,-0.5658501382653702
1.6299077515209488,-2.1600040704031596,-0.5979268481236442,1.7467217213700048,-0.13095878293074104,-2.0953678956415844,1.0622414103437527,-0.8522685005429197
0.0047901805135349956,1.268168816873939,-0.3091763916923307,-1.2499621448553342,0.5376407043437128,0.4330587415281081,2.0397851779054204,2.191542208802688
0.31966657209953986,0.6498709796047138,0.3111797692911257,0.0060372119335694845,-0.613438067867429,1.5852337711880153,-1.0501372726605818,1.8237328455963104
-1.478128606910744,-1.4799959417825659,-0.46288928821668246,-1.4348019013597901,0.9986649353463252,-2.5646424502505627,0.24064283588260307,0.8752068322500675
-0.2626118951822981,1.4066079337055624,0.5205310498370002,-0.6862308103320772,-1.447256522357361,1.3570513468971572,-0.38411866807613176,-0.2099868436071094
-0.11224242890875893,-0.6101997365867448,0.7065999120143074,-0.1355680323374654,0.31122152286956095,-0.6063415209786617,-0.7884253496923557,-0.0991448216690738
0.5748587784855297,-0.09681863766721246,-1.2707669675061735,1.317338959555691,0.11110009160529134,1.020479160548065,-1.0180307482784658,0.7940656326833649
-0.9155059512141301,-0.01794257419870714,-0.16997636196990082,1.151941570642495,-0.6501581636907713,0.4322046980718475,0.36246422213145896,1.0019288310464844
1.4393887773908074,1.440941337088519,0.9471577270899885,1.4028570732778645,0.9193851053711376,0.2862259914087544,0.6387252943686239,1.241906965803734
0.7749325360707507,0.5508854768483894,-2.2746036124365268,0.7546572046548117,-1.2675647986629053,-0.5450002076748224,-0.4958112411422163,-0.19903395493500936
-0.20903920428396094,1.6050076864147877,1.4299168293727527,-0.7674811658841928,2.5243440749701613,-0.44374785628241803,1.315306891232412,0.7173331534476125
0.17616967426300556,1.208818811578805,-0.568555240659418,-0.7245245754992571,0.8374734010618259,-2.1323057449438774,-1.2163861872931183,2.0439123379274355
0.34252892087352144,0.6225962612268185,-1.0493575500920445,-0.23904954558937472,-0.7726951635251471,-0.4355144984016854,-0.4017938946160977,-0.07793280666617311
-0.16697192884402878,0.6264561086954462,0.1172942153141295,-0.3517137555732222,-0.3157827186846889,0.10506549559235466,-0.8407065581893315,0.6148330316133858
2.022761991360819,-0.439484596713812,0.3227780056797842,-0.45213110738559115,0.48338035373603083,1.6590043973337751,-0.7657924111447627,-0.3479316481216064
-0.6787721512516779,0.44716151211272415,1.165050859396165,2.243520563926467,1.466403743035795,-1.1454099765934052,-0.08103954016030361,-0.7179709892041165
-0.2289006482628024,0.4786322841038031,1.0363207574186881,0.7971335148407743,-0.2858194748749813,1.7735614733905316,0.47926414412834695,-1.1935434415865123
-0.2621764129028085,-0.047586820321367226,-1.010103932545339,-2.4716694432913004,-0.3463935736113884,0.3769556453305159,-0.11016847610946617,0.39521787146586806
0.2884787243302232,-0.669904107091615,0.5489554352831568,-2.1582499170908185,0.14879091990075186,-0.3982676400697171,0.3536535921769379,-1.2428493333849682
0.415708454796462,0.10313182035179919,0.19320572128684246,0.7521468180047447,1.1844743809735356,-1.9637185397977268,1.4270828899714691,1.6827668606360515
-0.276571598704333,-0.6183932141664886,0.3836686558764338,-0.8978195449790068,0.3093989373121099,0.447851198785668,1.4386446397572805,-0.8198196356030181
0.7721327367551836,-0.6080717699761145,-0.6328711473807686,-1.8604361956062507,-0.1754212798772943,-1.8949105652498417,-0.2884948418270758,1.2656817525920636
-1.4692722125487228,-0.2918321703667453,-1.024503465805901,-1.1198845098654835,0.16059356301186786,-0.32753067624901283,0.6342824243986807,0.807579062899613
1.336493340243754,-0.7721205369231018,-1.6930119147132041,-0.6816500363978703,0.7011974586831211,-1.9758004021702977,0.7629961893879854,-0.5056691649228449
0.527552051841534,-0.7253556419228302,-0.07806212458362807,0.08154685317865853,-0.04676068445785633,1.0034992571528547,-0.7744343164023338,0.867352232913849
-0.013990843158447477,0.15648044775764272,-1.0456077626895808,-1.1782978372491353,0.9336015184650388,1.867885347554458,0.9594442493817521,0.1651924865852579
-1.3263866557959718,-0.08227117115432526,0.10848440564128338,0.3150806374359148,-0.6943452833344452,-0.26776200285713914,0.9845992748341595,0.520901955595122
0.7226830350688649,-0.0568082471299431,-0.3606309557044402,0.532288828757483,0.9490967709697257,-2.5497782451469093,-1.1775624349697953,0.3123550272498235
0.31995355019324695,-0.9088482216584436,-1.377361992940411,-0.0019751645006995055,-0.11653838605819493,0.5001887088332229,0.7014591346407067,0.8924692664410911
-0.4190172648744204,0.04776913557282275,-0.7566904553139738,-0.4632289731597413,1.7902171628993606,-0.21961413952318928,1.1579849702406586,0.86088636208517
1.8123236832151361,1.2618327163729701,0.38743689487478283,1.0344343981847401,-0.599760726353089,-1.1545751401612043,-0.6696317310546857,1.78318389935812
0.006937924049696085,-1.0983439297006055,0.5066867418341731,-0.9616462297959777,0.22920897584233246,-0.19134100314249652,-0.2874293957166056,-0.6224875262038768
-0.8966812815027755,-0.04157304374683698,-0.7015147488912791,-0.21053552403353867,0.847788481158516,1.1579754181626754,0.44171491283891456,0.8987321916416671
1.5022698042335276,0.48685594872865745,-0.8908019131750912,-0.6842133168750353,-1.6673161627493451,0.28721325020532523,1.464808937133169,0.9145756961790508
-0.07660699614501834,-0.21293646081478562,0.20856833214051376,-0.0974746549123463,-1.0342150440254478,-0.20621109781553074,-1.5781886668733118,0.23470558027751712
1.1137296755359807,1.5950466145667286,0.8584014334988422,0.9192172524340539,-0.5629404225021972,-0.5336186221603227,0.8925315671737033,-0.2749103400702362
-0.5643716664121194,0.7478378289504551,-0.5192480810164991,0.22780839265464906,0.6897280681549713,1.6108391272643292,0.4377866435752701,-0.6721085068436781
-0.43526458511285865,0.8484022115941218,1.0380114173302002,-0.41027941759045344,-0.21324050444330803,0.5399149745613859,0.40813473516716225,-0.4877332637481303
-0.006089609570082824,-0.5277466521545378,-2.004094329191009,-1.724339905517373,-1.869957722085496,-0.18685985248176532,-1.824276304186174,0.5046948769269729
0.21539498869217016,-0.49969107767629195,-0.09217368373727895,-0.4025575142055376,0.2704630022997667,0.582753632231119,-0.1624636395422157,-1.4347811109087865
-1.4140863165410666,-0.618130896463924,-1.8849599612706773,0.23799125890425127,0.22384112662237968,-0.28073187577157566,1.0981880101770558,-1.8826457879846343
0.03752288661349728,0.995204731694475,0.15567599379175082,-1.8452857663609612,-0.23035300224415184,-1.469941367277142,0.7492287329447185,0.8624576671377944
-1.9887657724643997,0.5458887337009521,0.7562675656044618,-0.6001550817050579,-0.28674851378729427,-0.19889143179479468,0.828756843177118,0.7837816715716964
1.1504211728700273,0.3442444247404995,0.49785022796592265,-2.499451705276908,1.3578272444886548,-1.092648791189506,0.49407011146694213,-1.8045757367477155
0.9443937287247053,-0.10283394523168823,0.672938931150494,2.140831628074993,-0.14613399987428893,-0.8684901829871324,0.048251171765895516,-1.1237776103387076
-0.12762963627587937,0.8908622366681564,1.1526850369498494,0.8159787497077333,-0.09800131807234387,-0.47233667705301424,1.223411557779435,-0.5570027113584114
-0.2558629088937415,0.9311283758335906,0.07051451809570594,-0.6649300465247707,0.2415889698556615,0.09253867193952567,0.356707482372173,-0.9619172914782822
-0.5940584004391168,0.06256139421367903,-0.6025343418231426,0.03837473483983085,1.1425846639087744,1.1210124298648891,-0.6260478706987165,-1.4591728287944659
-0.004437341151658817,0.5188520083192412,0.9021151855279332,-0.45194623634180964,-0.677734755350029,1.033104640098905,0.8442242524471224,0.7387098871878393
1.5719959118228666,-1.1471799709157258,-2.8436481815267425,0.5547568048584293,-0.12511044832060098,0.5216032074135923,0.0626671070436031,0.3717775594004092
-0.7829141257572209,0.6637077627060011,-0.10797570989170824,0.7662798258183091,-0.3478774541179484,-0.4301480601639007,-0.44442402375035095,-0.5852066095663795
1.1321764412502662,-0.31116682850830213,-0.8030446525605153,0.34270927861133604,-1.8207841279319656,-0.46223940570844463,-0.7058976648888833,-2.1343715899202302
-0.9603704912616026,-0.8309081828460121,0.5051060086514655,-0.002277564217009987,-0.9235349520928683,-1.5876222860280094,-1.6606939335318491,0.058515978186291354
-1.7865110516389644,-0.6515295735100206,1.042243413492287,-1.2008204275977312,-0.9193377961674228,0.195554443468919,0.588994328504996,-1.2842342326591067
-0.17085397427936855,0.5999215503995342,0.04292788924796083,-0.20692959910977146,0.5476011969630982,-1.6314998109150851,-0.1984360870298165,0.6350098194838316
-1.233440144325058,0.31759568598433996,1.2938778853211539,-1.4449883711283278,0.6135782426152141,-0.20644437850587552,-1.0550320678874994,1.0568730543426754
1.0350239287787741,0.14052368306420662,-0.5941124375602274,-0.6980861669506363,-1.2057478863138826,0.5575679515181301,0.3671600356331204,-0.4545595194908012
0.35913040658006384,2.239795488951515,0.2819942617432202,1.6910954713721353,0.5304569054674533,0.9961345069904315,-0.8072033488339653,0.4270480470330913
-0.7237618677268542,-0.3304151557553489,-1.1709161458625899,-0.4370096653866182,0.13923099278595097,0.06099674973923421,0.5308888086585561,0.49691077070317946
1.9321746353325735,-0.25140526390390333,-2.6570604915722256,-0.9098924275039529,0.3763382076913117,-0.3509401908493015,-1.4882699722620034,0.5843076345412302
-1.1466043070103178,-0.39357001347022913,0.0048569507966303846,-1.4376246260345544,-0.19378584764139484,-0.9198004914968212,-0.8090569110756881,-0.5756805205589516
1.5850364352106772,-1.1613237132365217,0.2122985691375003,-1.2969380486918525,0.4853636517037421,1.1242132674789536,1.198760064869819,0.7212424136168828
-1.1447974880783127,-0.16269000657942048,-0.3524974140343379,-0.253093037958988,-0.2257387338486812,-1.448411650649141,1.4056525272773503,0.4386618028875812
-0.15815915751235035,0.8320421719879932,0.12447545879578772,1.0647721702530832,0.5724245834748628,0.12235234800530059,0.9084151082447381,0.37773461834797145
-1.15617979223703,0.5477650446686874,-0.20796507047797916,1.107447188728597,-0.2309216064462096,-0.2853218248449097,0.4455957956703966,-1.0016741480545317
1.3434051004364638,0.8105428892772738,-0.22688207456466028,-0.8929174909255917,0.05919722538065144,-0.24558745315680258,-2.2944682738739477,-0.9710950513508194
0.07889121941687827,-0.5306428332129637,-1.6854373317557954,-0.79570688448207,-0.4529098702671845,-0.7246300029335472,-2.027992085328162,0.415758617147112
-0.5134135853468107,-0.06682518425987605,1.3408330419866727,0.6226764363629959,1.9156948635211588,-0.391186322321954,0.8297449200905426,-0.8237497667677316
-1.7259336655807864,0.8919787151386345,-1.4176750155177567,-0.9118182702724964,-0.12282592257709406,-0.20004397330414606,0.15047158191797877,0.10249349053298557
-3.0378840631759623,0.8911414138521021,0.7934840806329903,0.932215776300342,-0.8349999311040321,-0.37391569259916557,-0.2709849292445658,1.482480493418994
-1.358789233379798,0.33306189347135173,-0.4049143104902217,-0.6224024509899582,0.31897367383103986,-0.5803874127516068,0.996062813426644,0.9094910543781822
0.8600450041024909,1.771553196226789,-1.6309692783552883,-1.0135738092397264,2.1938682762726183,-0.9131718370727796,-0.16545164527180686,0.9878210784351417
-1.9422191896268284,0.22203017527110253,-0.755586561433204,0.6579150856909577,-2.263896040006815,1.2782929423357354,-0.19858297737274658,-0.13001518929328376
0.7150991602164146,-1.1425385727292923,-1.2229847272467718,-0.11854891322284497,0.05076815916952179,1.7484833824432824,-0.36596202320079996,-0.11245003330139644
0.4070760501676696,0.010237522094794727,0.3940230717546823,-1.2388818417419847,1.0158738115864208,-0.6226452689048584,0.6408233173762874,0.2307343037569983
-1.0441892618448738,0.051753296016445675,0.5017046583889601,-0.12602621418889698,-0.8124427813878502,-0.3181339725191789,2.0778477976017244,0.21801046561683368
0.11193859368337986,-0.6696430077577902,0.2536058004685349,-0.823803520999741,-0.06867711346752844,-0.18792530187893203,-0.17586578663261548,-0.24124587666128508
-0.246309145130377,1.518311859134974,-1.2691850632460142,-1.580899759718539,-0.900994841488184,0.23540590153683674,0.2703292933722462,0.4868636682241598
-0.018671251281790143,-0.7390745097939235,0.6145488027003225,2.511703984792854,-1.2757650675870664,0.4578055589181216,1.6349818646490695,-0.8916845348446366
0.61057452095114,0.26913917738902116,0.14840302655612775,0.3905123389824263,-2.5179002755593,-0.2905384879988592,-2.8685261985492856,-1.7183997336014967
-0.9207075043129286,0.3263174562438063,-0.31225737027811723,-1.6417547440066365,0.05654249994830649,0.9763910730229903,1.5169250727808539,0.9504006611901271
-0.6673835844229846,-0.4512987688203432,-0.007264944146812164,-2.0571903252397146,-0.9773783253848788,-1.724881153652748,-0.6126551623714526,-0.39788606624000805
0.17753169425774593,-0.46418318832944344,0.5388731923566076,-1.1904060207740526,-0.7736298249340516,1.0960971023387767,-0.1422140859012101,-0.9304183216910226
-0.1417846225934156,0.00776807859676376,0.28645969348079725,0.22448010130183188,0.22811519145218398,1.6074879078427198,-0.5305651805829703,-0.8686637390272569
-0.38889454651904737,0.4533919419310062,1.7584225103818822,-1.9063090102846307,-0.9800070783537499,-0.6443662608144743,0.08866527721558931,-0.6671389154048162
-0.9135842586968014,-1.7056574939334164,-0.46283427113632014,-2.2599573460253586,0.29319680130502374,0.0671159183339727,0.8922783138952822,-0.6196580507382945
-2.0271691122594526,-1.1171631301427352,-1.4328103186318264,0.6725788085515251,0.8897960217518117,0.17438457975035132,0.24672180379084285,-1.768705921842973
1.1878224365901564,0.0183241910440421,-1.3084702812641138,1.086229336393359,-1.2196924306167622,1.8435897572136126,-0.5064953898143644,-0.8432920523361093
0.5591130316080668,-0.13059027514106772,-0.6271752478317142,-0.9394575446773614,-1.062825960426052,-0.29764914093503203,-0.6646511035788444,0.8384213920495681
-0.265660238565035,0.5380387895094597,0.5662660585444538,0.5613503409099172,-0.920237342240842,-1.2063121750871917,-0.668247785456263,-0.10311772754012814
-0.41653235971066405,-0.72425777980531,-1.1652606179681233,0.018100738032750432,-0.1494347158972603,0.5033311932130697,-0.8808322360928863,0.10787080140826617
-1.2029193094852197,-0.5747129005677183,-1.013811733588619,0.6113175798072924,-0.5412728008743507,2.0242137293687037,-0.09669590989995044,-0.797734281558375
-0.8450306406552004,-0.6477508902542279,-0.10883717650034035,-0.20977915708625863,-1.5540456309489965,-0.608099901286931,1.7485979876786022,0.19137228631443298
0.10594124339139363,-1.0556525405111705,0.541439812835961,-0.679327311299187,1.5558844921951285,-1.4109006032395295,2.1951584040164973,0.8913970401343801
0.11067525600263034,-0.22727880947318407,-1.020075979640432,-1.385002626103443,1.3053511709754129,0.5350782207493745,1.4461819016128692,-1.0686707661220187
-0.5421150236997196,0.3652151891935716,-0.6200722044462337,-0.6855903353347308,-0.5216867524661651,0.38274097831932175,0.607739877746945,0.9033071722332409
0.5644408581669149,1.4380630483407113,0.12108799110656783,0.11315363922782258,-0.8527521952304364,0.2981629308747239,0.11655793468668947,-0.16622232907993914
1.3677544444847782,-0.7782424708345713,2.3743490127614506,0.9197043937448962,0.8231557318733321,1.1080899574855119,0.49675999920529684,1.2100410377486979
-0.9948219226541343,1.3698189946556305,-0.08773293505328661,0.7611818365510098,0.22464837157989137,-0.48073478074639,-1.7516235483631835,-1.0386900641674828
0.2578461610214417,0.047947603128303116,-0.010847650754990244,-1.528773628295797,-1.1912594557118843,-0.5737940467153233,-0.9078784687326521,0.838746625479722
-0.351181528147459,-2.5782840321846794,0.3443476662722057,-0.2392465491181357,-0.26829643432342204,0.07664942002276702,-2.169136069582955,0.9273067082701199
-0.38643975191268104,-0.5900679893387667,1.4018371898557607,0.5442676969574984,-0.6323609465282037,2.001074734760723,0.57422733101599,0.07799689486569718
-0.6975010032348858,1.0809136793594918,-0.17893757739009844,1.003118953312267,0.9653613610947338,-1.224305194190174,0.1772887617153699,-1.4157551966429418
0.9525313847945293,-1.6135245593154914,-0.6070744018247869,-1.3476022694187713,-0.5208969738863193,-0.32880755424619823,-0.5896750063056427,1.4474617818724822
0.32829900000030016,0.4346903125916256,0.0766775671053669,-0.5542719893776887,-0.36990945296852645,-0.37032833509955754,0.08676020580252693,1.4594901444310666
-0.8674690484546018,-1.5188269143506046,-0.33917389900939576,0.8166865782000623,-0.4709775400012181,0.4651229952174539,-0.7839415537751822,0.227656882828413
-0.6075519029801415,-1.4561064150180068,0.3752786337733178,0.43288120047646245,1.0396473687262375,4.446870032622629,-0.0719400145742881,-0.1572892615279515
1.8130819910874392,-0.18923456487638382,0.056452466693766856,0.30606710843650736,0.6395311959745424,-1.35477934727672,-0.9019270913660447,-1.1895489439561377
2.82682683142613,1.4396077202394209,0.25152769114966106,-1.3076312377357155,-0.760139955846148,-0.5427839314390904,-1.8286073945488706,0.6189342128526223
0.8300190433732637,0.017632116373347526,-1.1733488408239197,-0.3905252441673938,1.5852919469879572,1.333439643310084,-1.2265253657625774,-1.2980518120626259
0.9355367279037655,0.9171327030463136,-0.12457093031399723,0.33732001327738864,0.31961742649172153,0.012520593989962117,-1.5467396016568655,-0.9291092555013398
-0.34781716669932494,0.5730307978721317,-1.1561705835947498,1.7268096910883932,-0.3111247676310037,-0.13697631193716575,-0.6778812214270606,-0.2566825129863224
-0.4042871338627479,0.47854266669064366,-1.008016796337506,-0.15717294232767218,0.4633409899677494,0.8618868487323834,0.15837755886893626,0.5552321383905304
-2.3835942066808045,0.42396108766429885,-0.2979377929057368,0.5593222553636361,1.3755073450653814,0.9309529211405262,-0.8184328270335458,0.2824186943461223
0.7533064334151768,-0.4563173237747056,1.5817104895203826,1.1949472947708835,1.4467948945555105,1.0850642214099828,0.8277634092005902,-0.9543640692103914
-0.1264138002261451,-2.076590641085427,-1.483713406966854,0.16256755255667463,0.4773390404743059,0.623421228176257,-0.04646991164975803,1.5796672041839923
1.3321596481493219,1.1347457357735162,-0.009861192294124965,0.514849930090296,-1.0414002180692123,-0.6064520407366305,2.271387024253689,-0.08086306972900467
-0.5689827671966311,0.37356654477549495,-0.3303640318406767,-1.1860339822652584,2.905496516366261,0.24080797885046656,0.37463770621409537,-0.9278727183800173
0.12531030847512556,-1.0022260294892318,-0.08003638171278758,-0.667354620088201,0.619819828085474,-0.4055281843143528,1.8254119761798773,2.2339409347383827
0.5156085776193478,1.253526475711172,-0.9153704965418611,0.8140787071058703,-1.9258224291995285,-0.5353907100294785,-0.0883167645211623,1.2510113577199973
0.025065112718226926,-0.14917596889993134,-0.8012803112286835,2.1767582378415153,0.7677573480752344,-0.43207126731583523,-1.010628449308007,0.555155804837434
-0.742208745955052,0.7433189571638643,0.38745010861143675,0.48961663554721374,-2.776753295867469,0.0027058193177929516,-0.04104119890651544,-0.6915590626260198
-0.4272702022996803,0.9628572224777334,-1.703145657074022,2.3234982844319054,1.40284968303776,0.6427391799273504,-0.27359218955559467,-0.7272441737625006
-0.22137642332856466,1.3256795954937877,0.7081218905362072,1.4070052529574757,1.757759968900717,0.0442226728091106,-0.4254009014819064,0.07247028683396868
-0.2497417172197294,-0.8886569357931748,1.558886778588542,-0.7198707819438718,0.8188061080633707,-1.506264918470393,-0.5313046248279324,0.6243396972083528
-1.042338030097965,-1.3531197769221304,0.9751564250750849,1.7670774109691574,2.1334551149949794,-0.2309105941621649,-0.8909705809003056,-0.33508038207108765
-0.4534554570138569,0.8210976131812092,0.9231485566583219,-2.5038025172834275,0.9611014555951342,-1.6105236479247593,-0.8473470962312659,-0.01847242218153004
0.5230786550492816,0.8535313486656885,0.445940921226116,0.4924958438220402,-1.2679201829121023,0.653564092105836,-0.9068164831238575,-0.0970553259556606
-0.39007230677638827,0.7240724773512558,1.569773383294279,1.4004668340156279,0.5971899057128145,1.8835918200349917,-0.4902240728934658,0.5802523527719599
-0.4186830344197784,-0.1565254256990386,0.69532315833576,0.3942349418281398,-1.1025063220902749,-1.5650934520048698,0.7937921790165929,-0.07758843218636517
0.29828432583554115,0.8100055373411736,1.5958498631530151,-0.5843636423678078,1.2436462608712153,0.05110328589421661,-0.010101634991100804,0.12482322028621609
1.8977593455204251,0.0713069328050991,2.206773771533481,1.0679612763878956,0.1572405612387479,-1.2049304814423825,0.08011282466884179,1.6877852646614724
0.21083437347210274,0.19406571241971063,0.604310408046592,-0.9651411481136665,-0.3885025782394835,-1.7510684998473645,-1.9514593478425328,-0.45043826928396663
-1.8035973771177178,-2.083166101032278,-0.021004956778331054,0.7214113537542813,-0.14546786664744796,0.6563767626680403,-0.1606108854760517,0.270310934328408
-0.5600741639878587,0.40360049864470926,0.9618877718409135,-0.7165326553416165,1.1455078469882327,-0.5791323634571235,-0.1972557417891666,1.0911665587054928
1.317259430595661,-0.2895086624641966,-0.6315332644625177,-1.214490364898924,0.14338187637181662,-0.5660096467399156,0.02941686250781732,-2.4494613089796586
0.21351848909325452,-1.2480160315194706,0.42077581997616537,0.4400550896712588,0.6627827051982406,-1.0861370799816548,1.3698725508127068,-0.2741870539206183
0.04333535708396667,0.9382750059999075,0.6635558276291725,0.49686103497444495,-0.36356407206419883,0.1993543489940414,-0.7383848350227528,-0.01154403783516057
-0.14560786901143202,0.42897878727121486,-0.06440282158003065,-1.497882307672172,-1.0816146639361657,0.5536374806645825,1.3543083981566493,-1.8336443569044827
0.4605800154355863,-0.5751468037581311,-0.35951712392419455,0.436283240914879,-0.6743659346771519,-2.130906410958649,0.6909905185748274,-0.3641199597423789
-1.7350583706477583,0.1261307507541179,0.014577336482432483,-0.37426811829750267,-0.8322808610072762,0.25306819925808,-0.2859754011667718,0.9499382712769595
-1.2626734476792427,0.04018270594704674,-1.3210193378653854,-1.0174101951826795,0.10862087260865708,0.45314448266311014,1.2767947469596093,0.07491490075350159
-1.0577166316278357,1.6423218560780217,-1.3063338651382064,0.34196618266579926,-0.2248696907176608,-0.1387123906737377,-2.084524475965955,-0.10462746997616383
-1.099018208025571,-0.965061741758966,-0.6309103161341094,-0.3406585007827394,-0.11387453135750301,-0.7888384361181029,0.24262912210347173,1.0364676794989303
0.09289351139602006,-0.985157981534881,1.0158146501752203,2.145692275039446,1.4261578317639472,0.34954354946588884,-0.610220660897932,-0.928452624818018
2.1939716406103082,-0.35104078314854426,-1.178390926191427,-1.289641654464759,-0.8993189594305236,0.34373287909031414,-2.5430969959470997,-1.044253560160813
0.318507680756284,0.5131534071808471,0.6364215018248488,-1.7184146592108391,1.3416271646149094,0.1994491586059922,0.3796441044341989,0.512027097013911
0.9734259409779823,-0.15753180881452244,-0.8004845131924695,-0.23705146348058515,-0.20725317623912004,-1.404490428902866,-1.274900771447918,-0.19530243509329898
0.7217571147836335,-2.211211662224047,0.20650376357224814,1.0952026474232788,1.3884051027112339,-2.277575542268031,-0.606181472421966,-0.5098191612184547
0.34124514483040286,-0.8727477115242263,-0.7094195421070122,-0.773392398324773,-0.9768740485456908,-0.4505788307775025,1.1111559146181211,-0.7150034822771759
0.0007119075543907867,0.28959598608741577,-0.11790672088067242,0.06133492149416815,1.1458386282190423,1.3482663553067102,-0.20910011464594214,0.3226604363272133
-1.182924828280028,-0.5664714454405377,1.0542023342170785,-0.18332646452055482,1.2269874715995197,0.8085608967841732,0.10096444342966235,-0.3606421554085938
-0.691195036147543,0.06713521595905053,-1.3727699269404408,0.5822186547690207,1.4510335759685522,0.35090268559725735,1.2743146439665654,-1.0881618911349475
-0.9479585852909542,2.041946427832053,0.41641137839406,-0.4727796039159469,0.13510132041246764,1.0583176705126331,-0.2650859057252905,1.4684163710990878
1.9471227905721453,1.2012286486811985,-0.15137787236757802,-1.0940137799055212,0.02416863828861234,0.35548728994718737,-1.3467501471786,-0.4669247819182085
0.7981557918357008,-0.9367040065141319,-1.7124337428556842,-0.5955414104830509,0.49609886138372417,-2.2282172493926007,-1.4789972338838282,-1.5207963241662752
0.7876078846676714,1.7600854092748461,-0.5316535132933595,-0.3616415646090828,0.5110555817273149,1.0599317711632497,0.312783625374921,0.12901403738124934
-2.3338057704736217,-1.1595809667377242,0.6155000155457916,-1.2289490516066714,-0.6675609450289886,1.2234468146927338,-0.5660780395129343,0.9051132803091496
1.3951846616432302,-0.3759796349029844,0.1610259470057236,0.43189650384050327,2.0761032182335946,1.0133840998902293,1.8094075148108018,0.693246574266535
-1.1497582290885866,-0.6964135986317002,-0.6256091806604462,1.9152665339167037,1.3804256771988446,1.1640750515137999,0.18220289576278878,-2.357075913887505
0.8721982175103118,0.019118850529154064,-1.1512312799989386,-1.3771854394510044,-0.8002566873059407,0.35420715524254065,0.769536565076343,0.16354353108363315
-0.4862453271623885,-0.9049220834885998,0.08260066573608568,-0.10818054389328924,-2.735275987925002,-0.16055212148035725,0.17537624813059832,1.8743121232762836
0.16362278898497984,0.09350397088229867,-0.20487078178779897,1.0757356632618145,2.2439401603423565,0.45247923909756366,-1.0387614325210757,-0.3903881043252117
1.2632309847437908,1.1203174860159568,1.7562626176133218,-0.06700539599576401,1.54440685512813,-0.07725929988648951,1.5389710955436346,-0.933029751145492
1.0666109424976271,-0.60469080910899,-0.02316739654075293,-1.9150057559175944,1.131866085366831,-0.4268279894235782,1.9211204435505247,-0.0234269916173544
-0.0714785181834646,-0.2653537446675166,-0.07652856215341121,0.6397584392218159,-0.5873784736801826,0.2332871905738739,0.23047834195968364,-1.256385742297664
1.4167077651820676,-1.7672816462415086,-0.35605370735217184,0.866048807640826,-1.226433932557162,1.085678488946714,0.18888509377551407,0.06005016393116785
-0.21374515375023898,-1.4327887431005608,-0.05087956996067644,-0.7515520358846287,-1.8686529145598032,0.1006031351544995,0.9616700449768184,1.1099486504122307
0.47783947884759187,0.32774315930849396,0.32173393829998825,-0.3675064671547984,-0.29450441887496465,0.79537080925164,1.0873235669076426,0.6373328029944907
-0.8828581777790069,-0.3788930637566024,-0.9145375899443472,1.3110957152503926,2.3788513441957413,-0.06544181271703063,-0.600522112566971,-0.5931070945383964
-0.7836544736197311,-0.07003504037814878,0.3986439104542533,-2.3117806979110744,1.3918857240019327,-2.316875637807167,-0.447916227046938,0.03321988351747031
-0.6799400782085835,-0.2993187810447842,-2.0607945008464648,1.43151104000571,0.26849389099054893,0.8558645580024059,-1.0101968983927587,1.1025085992387822
0.7059037910688993,0.6213366843136378,-0.3333188868664654,0.1498123755647856,-0.1697956735865885,-1.9545818738247855,-0.06037441256689549,-1.2543916419100445
0.4199408991169091,0.3280141738750302,-0.031641989450757406,-0.846014893802868,-0.18485968067313005,0.6097837764938647,2.044860547507169,-0.7576102172141556
2.6158330059326356,-1.5697257885303941,-1.938323585795322,-1.1828686372746693,-1.2120650684629544,-1.5586360188931478,-1.4564377506582402,2.144462147161324
-1.4584446385319239,-1.4440275205070336,1.1117996852522207,-0.055977060686317616,1.3537110829499717,1.191591012223805,-0.11348685657397357,-0.31443165924548916
-0.19285862497851,0.01089851211056125,-0.9295651986257316,-1.1527927530265372,-1.141039207234848,2.0941960117950673,-0.9727289401299573,-0.5725485636612692
-0.8073227072930597,0.6831083227832205,-0.2245380025164164,0.2731379378587929,0.6845003871057651,0.20826164581699944,0.12222491762213167,-0.07190926253039606
1.8705691599196794,0.17140662498185374,-0.07905434525097785,-0.4257665910776024,1.4781841115005503,-0.6439856255034747,0.9093801114206926,-0.3818716309177793
0.6899918192822838,0.6218620415886214,-0.46147021326361476,0.6770067580748211,-0.24366259354679923,0.01202289198507765,-0.05251607658765551,-0.056424966966152505
0.8872073408901654,0.986236672112424,0.5066486673281183,0.843317577431317,0.5122220388459156,-0.8592861934015115,-1.5784957540159725,-1.8780617430628037
-0.40063959343889466,-1.5700940982618867,1.1982112457600698,0.6848058887501755,-0.6938902453912061,-0.12175426015998551,-0.17947984373454692,2.3103874153126993
1.8778122501412173,1.7134025306647434,1.415027351607078,-0.13606069045848976,-0.5935290704863739,1.0268820502385472,-0.011625587264770402,-0.4527535003901223
-0.19692030616124154,0.6058014981893938,-0.3487540536748591,0.3003730934157866,-0.08987615793898598,0.036494223982643105,-0.7801274367721075,0.3522389307011635
1.01450188204885,-1.6062190971052066,0.6567840424285307,1.1754868813488537,-1.3422370921598892,0.0446070472952949,-0.7289688601701518,0.9598131062987622
1.0942169356919167,0.7476943295044586,-0.7283810738463881,-1.7450032979732684,2.7760536774399873,0.10401730549669791,-1.4155697279071109,0.528966370485081
1.5419346732160826,1.3175112736412784,0.23270687554652175,1.1535120833531631,1.1188290155354028,0.4530943988191879,1.521985501643374,0.26741452868313365
-0.051099519917788674,-0.10334951725391314,1.1394588271401742,0.1153226328807856,0.04181391075226557,-1.4112271173186066,0.9051386145145853,-0.22462069900445955
-1.1121612673467907,-1.5630172758410623,-1.691645573538062,0.7005181514100006,0.5229473100809733,-0.04700775659601872,1.9902539314285812,0.41450374799788836
1.0157511385507,1.0470261418854443,-1.9416761676558456,0.8432725004232503,-0.08129093343969478,0.07391088529629952,0.17875461863547826,1.2510850678250933
0.05068494491732393,0.3441463662454882,-1.3360220737473207,-0.10753038030843494,0.5741835368621395,0.41946969585091815,-1.0383093548241822,-0.38657351250676697
0.18307900993051013,1.8680936425314953,0.44966703815948506,0.049498239440071326,-0.4366294755027656,0.6957585900228912,2.084395000955671,-0.2669168607454201
-1.1056690361719657,0.9708486991284287,-0.6467937440190952,0.43319463517784423,-1.603736488983386,-0.31854488715084944,-0.04827715805596139,1.6283986616283825
-0.32176335451032495,0.5301673850968599,-0.10020234223052352,0.10328150445271145,-1.3527240227404194,1.0062997538459384,-1.7808194200261274,-1.852487229555008
0.9626880891351711,-1.081526172175881,1.2986459354858195,-0.6242259448723326,0.17124572610368258,1.8850297897916581,-0.5461866930340581,-1.0078604272717724
-1.207445422582894,1.4793676010782109,-0.5910131605487113,1.175660343411746,1.6087648500927394,-0.7490618889098202,-0.06262715628306645,0.7125510407058725
1.2929469605181376,0.33202906720499425,-0.06045747084074517,1.0509116142518893,1.0393982023797084,-1.2208758566007445,-1.058951527380164,0.06951892048723499
-0.1636972183338351,0.18630183276099507,0.07153255226799105,0.31395418011467513,-0.17006218276692958,-0.0018057386508678248,-0.7225207289682815,0.18317812759095947
0.17194316167997956,0.20529953403079426,0.4964627523617861,0.25408348145943277,0.9860025816968322,1.6163041558154447,-0.8271502204560676,-0.848548999688794
-1.3963809604985553,-0.4407150556237241,-0.4816395577743634,-1.5207124170655961,0.012433881992348243,-1.5385446798653122,0.8189636833009475,-0.6107052510790767
0.39976335154986886,-0.5814205946683941,1.4674315871442614,1.3375471161125652,1.3843941495468102,0.6625003207324344,-1.00565371672714,-0.44858707164141726
-1.0416412664697339,0.2640661410055415,0.6902304992093854,-2.1636852013037005,-0.6988984229983196,0.2194871108428362,0.1558755792134849,-0.7465576844902623
0.3028749256605617,1.06199506272068,1.342141859921478,-0.3552892402085795,1.4458281661916133,-1.122863377658741,-0.6329235523795491,0.24781874142784127
0.13978621662026142,0.34342038254205315,-1.0902280518833627,-0.7361749773051717,1.167845253799005,-0.9752649386465398,0.3807791973791868,0.3075432274765205
0.04935774101333327,-1.1297687627646096,-0.7919479529211083,-0.051693783738305764,-0.05212414692526378,1.1568169597056683,-0.8446645209275635,0.5724798786916795
-1.2678129795291033,0.6100507999181174,0.09892239355762751,-0.5035033011431813,-0.09352913031958529,-1.183638779553637,1.5735317723397897,-0.4483811795881941
0.49726552460302326,-0.7856171483404065,0.40775194069771775,-0.10808524391009121,0.7230945250909684,-0.1413099520321159,-0.1578246645824703,1.115951843748287
0.6105748277260294,-0.6625037642331412,2.156603916219198,1.1073691947576638,0.6598000191793076,0.4137555184978679,0.11290887263858074,-0.25832591706187946
0.6083699562792292,0.0981229632831612,1.3451666988113813,-1.2759930506580974,-0.7632645093310994,-1.224206412774691,-2.3545660664217203,0.42340863028853937
1.508946749769316,1.3636416472118529,-1.4759976493954612,-0.09234958736661446,0.8693692509649054,-0.8435899016812631,1.0054814707846074,-0.4219094319458347
-0.98256295504636,-1.108119788920454,-1.2514229387784672,1.3233707720349968,0.13400337404416288,-0.22276903367183665,-0.6606449122768445,0.7387092635011286
-1.1256226482424883,0.43868751949146556,0.22388425095249123,1.4272407232440785,1.8133473958836888,-1.0067132397132328,0.5718466876250976,-0.03162485639790013
-0.37450001113498593,0.346655129504594,-0.8961986615653883,0.20469324119242546,1.1791765012517021,-0.9996582373230383,1.206776402447617,2.649116313569815
2.213966620583462,-0.18605959219282933,0.6520913164584878,0.10806005253548893,0.1855767223910467,-0.7555580435351607,0.5867203182962244,0.9818660230555837
0.22230392813043529,-0.25502820162159295,-0.47923474884005685,-0.9995156320661354,1.6328620995665224,0.5662997031002084,-1.206280556678974,0.9015646498446761
-2.281942793176054,2.2306172028426805,-1.0227628107052305,0.6602945389342662,-0.03519506368914512,-0.6215876424850018,1.48386426776416,1.1590288626572125
-0.7136404693215779,0.6939168965866124,-0.6135014745045125,0.17257524731605883,1.3939116293999736,-0.752500063583842,-1.797513541105198,-0.6593391050866876
0.5920610071661159,-0.7183536300078379,-1.1091111495450978,-0.5205658132554959,-1.4645446836402805,1.0758991920332328,-1.2546591168157168,1.7448628461948488
1.7415281884634273,-0.5136195732116274,0.17054450953587547,0.6560428006764035,1.8849120539637392,-0.898456226540641,-2.3472516548850426,-0.7326165255891594
-0.18138599569194824,-0.6272411264139985,0.6172499092230442,-0.8145362569573366,-0.21115829125133845,0.9075163404832689,-0.385238293551477,-0.1956485850380257
1.080734087824726,0.2183948075313715,-1.0900283973308573,-0.10938598692155524,1.696918823247631,-2.528260199691944,0.08504438230225193,0.39927514622208155
-0.7339770991516642,-0.5600560740594166,-0.9661134921472441,-0.9453391744508057,-0.8676807508095193,0.7744351989322396,1.028961973264336,-0.46339684701031053
-1.7129000869252813,-0.9877835064562323,2.23728892258956,1.2595626321740447,-1.6603129042955942,-1.7128629903450698,1.1888000366264488,1.1099276904711923
1.012398626785066,1.3716079150181129,0.23649153211807408,-1.6516358093694028,1.222489780163413,0.3932025252229826,-0.7685628736433059,0.001742832750031162
0.8790685465569442,-0.6533756797814446,0.4751948768350448,0.1590258977418658,-0.11413537475009439,-0.916780192819151,-0.6686853106219914,1.1342057414810014
1.2130835082040752,-1.7080757185312379,0.22689107885856138,1.166930919417708,0.06753495326241157,0.4639815855098682,-0.15938064723046233,-0.36923371473343586
-1.2103017488158125,0.3763729451013671,-1.577372738568948,-1.0355709203194141,-0.16583445410105788,-0.03969617337852395,0.7906140119135809,-0.41955125293550544
-1.1554110204696408,-0.008123640057147925,2.154973191226351,0.3390321722414506,1.0987324670711052,-0.819055454714973,0.49194941201906645,-0.33439168734042896
0.05925008554798183,-1.2640609231754227,0.6890341242340531,-0.7787592244955687,0.394809166197003,-1.0385699561915511,-0.9410437815083156,1.3238544681848912
1.1283629720070272,0.3999121577702195,-1.2421124283174814,0.8240430388356765,0.11325114827539176,-2.535943458925334,-0.5496458056491184,0.30083171133604153
1.2912141566056414,0.34371516664427354,-0.45721735827726767,-0.22225387069436903,-0.23765032214868495,-0.06171861426761553,-0.5821788363727306,-1.612327468638007
-0.5625707672312832,-1.0066391586433314,1.7657120121576755,-0.831849424026936,-0.26347224476195613,0.5665227955698273,-0.1162349616895977,-0.5994537797632502
1.122270372816194,-0.050430534677047084,-0.13271359694450285,1.290998869615929,0.26830428988606114,-0.4663663809088591,-0.8655367685218388,-0.23838457882349645
1.0955622231192592,-1.862827872869177,0.9310338176837772,1.6257881435994528,2.2233474377656033,-0.8551170919787547,-1.023274785989559,0.6544288069793999
-2.4613197390203787,0.03353300889910977,1.1726390164560871,-0.11115508414002935,-1.332153076503876,-0.5665118681966779,-1.5292528766715305,-1.585537108916875
0.374833751141511,0.005979740630290233,-1.4069680245052927,0.7026558514739033,0.010375410984510737,1.0519046064604163,-0.31861948004441776,1.2480011464073693
-0.2979443650862485,1.309389845564445,-1.1614121708536722,2.3737486079079035,0.9819552738188145,-0.4343368589406571,-0.31977325274834595,-0.6505895163691564
1.0272689329313893,-0.22555817113757073,0.03564906885830324,0.3345779870969463,1.2021507998666632,1.2072769488246173,-0.8710169540908372,0.973395995031199
-1.3907048860194426,-0.6643782913270455,-1.02202617860211,-0.6693309302539433,0.020281694033872023,-0.8922571235738076,-0.5553091202037993,-0.6196339036005253
-0.8882725025990975,-1.0095689422661291,0.8578705471240459,1.574419215990597,0.7223825334182703,1.386322682317416,-0.05831180209166706,0.2439858371212495
0.29565888169330706,0.870234792456278,-0.7719865934049633,-0.6485163306987464,0.7004704825501145,0.29432274047867196,0.30022484818458917,-0.7888854457434269
-0.48736634621532254,0.025912735687291015,-1.0940284304644607,1.3505199022044136,-0.8005992725039479,0.33269015731385565,-1.768706046935747,-0.7741434371574241
-1.1563901345622667,1.677887766658158,0.6130513693442415,-3.1778192923399673,0.3307701162193727,-0.7481867676200653,0.6175878822016659,1.1189530445580465
0.608732182233704,0.42149548349244037,-0.45726015067081976,-1.6061536841332258,-0.4652053593723358,-0.6870748544273891,0.00411342755872122,-0.4457730128678485
0.0864035834020528,0.5950237601630134,0.29689170299855616,-0.0016439009107469043,0.014929184243124529,1.1562885219452639,-1.2053854071531536,-0.8727876701459221
0.041912875175994284,-0.4207643162338514,-2.4376043580256197,-0.034395196631039376,0.03950246242924928,-1.084431301114819,-1.2468613523837273,-0.5683255022151741
-1.9297504050277197,-0.8428715017288839,-0.05068014235683721,0.5074245468630029,-0.7820057785041129,-0.0667078299728235,-0.7275664947390038,1.393740700100618
0.13895076456721356,-0.5528654987689227,1.1846552741560856,-0.909480762734583,0.2929729767108151,-1.001591846333963,-0.5065456251236633,0.9648360116173006
0.44463659477032214,1.9274703824615984,-0.12049247628816913,-0.9298260113877822,-0.5567158193556182,-2.716812122862714,-0.6744311965945191,-0.7129769817960998
-0.15081861860596352,0.23202062138538548,-0.9958230939860829,-1.3231261372539895,1.2341522399719818,1.1056011234197887,0.6756014702699465,0.3552206487775832
-0.814253482924884,0.9324033756867642,-0.47002037410520986,1.6808507057500799,0.9878460171325438,-0.2287509606835848,0.17488840065420588,-0.5743571382450792
0.32959529106769686,0.2588044307978047,-0.23533577102665132,-2.5117297721888345,-0.9568282337840991,0.7920665999494816,-0.00295789705012695,-1.981387431540292
1.1236978182946404,-0.04643087078211308,-0.3472367865144149,-1.4092705426012384,0.22579423465642628,-0.24613126868317395,-0.8236875891655231,-0.5757819839072456
-0.12879947176379922,-0.2578271738645168,-0.32438649664987484,0.13482907684268178,0.5029517478451128,0.39770196704796773,-2.288118279880679,-1.8563140666173714
1.2079514156309648,0.15512438231558803,-0.48801879684743965,-1.1289961282865468,0.30151217098682365,-0.37292868734531875,-0.6973316062056342,-0.340917322647402
1.1897304993128006,0.79493563380791,1.703281089634165,-1.7500053143821321,-0.9069957917277687,0.32456433367550974,0.5775151030121823,0.3625924002418557
-0.35080060319012674,-1.1133696771287795,1.7752757110514121,-1.0642726572879442,1.717359813188599,0.5455752590399497,-0.6998991261990318,-0.7161192142671214
0.3749315447494651,0.702168463253398,-0.516486587805834,-0.9986516194858509,0.46520929358619206,-0.6210371968590731,-0.313740865516298,0.27225982717869024
0.6679942132062877,1.3760913914084296,-0.8053398980161427,-1.5068502097463774,-0.4198615664995704,-0.3796208378757067,-1.4411832580350832,0.10989308448640675
-0.44553096421824895,0.652306341310491,-0.08796252144605035,-1.400172378094697,-1.3861804844992154,0.07065469721885492,-0.1560057240747757,-1.6475630614373944
-0.2302376857036786,-0.6869204910445137,0.41457645550168193,0.5782672604877063,0.21429352135936758,-0.9266512715334494,0.9511852236128177,-1.9577628654164978
-1.4855619975188512,0.5303642095733752,0.5141816355882185,-1.022356834191093,-0.012293989177206716,0.17851515804597082,0.3862042276590382,0.6502395649220167
-0.2597544734294144,-0.09297889854669322,-0.9162866341277676,3.308459032073063,0.21628282349366132,-1.3182178226528734,-0.7401258307089942,0.18322844778192812
1.7348890572519482,-0.2783458786909861,-0.3553377039925309,-0.08550126022387784,0.15011061864318245,1.0549609777040727,1.4886785317234226,-0.49053287973069104
0.38371667211396954,1.8956595732205421,2.1276638443746547,2.7818533799308787,-0.5783249542397396,-0.4325319600974308,0.6298055316751872,0.06329432085913303
0.8119180622157398,-0.9276170236574628,0.5099453435841376,-0.8229113683718952,0.15921289627122848,-0.031039682348701542,0.7976207402082893,0.5165919712104107
-0.025551177992255338,0.03561185685770516,-1.1590293110649232,0.47534579824843565,1.1995712495053774,-2.2211416248748947,0.19458094417006458,-0.3491492380356147
0.43497531080907587,-0.0027164546821333664,-0.6695490049254758,0.15355453751710862,1.1975835511618154,-0.09718994273589877,0.07337338261854807,-0.8367889267571196
-0.4502226366129806,-1.0297685240307897,0.8807939886590584,0.6481819388477345,0.12126905296812689,-1.2794322363799695,-1.3402596298715,1.1937200846353662
0.062089204367717366,-1.3306974353120526,1.0582234094302134,0.2961260853793003,-0.5568618066683735,0.3839783108244633,-1.9675408311734772,0.09971792144009324
0.8887205143917006,-1.1288929004671995,0.8087920450432645,-0.6055328423955727,0.8570221673703388,0.36997320184889726,0.2258208624307374,1.0551131232868733
1.6896325640793863,0.759852515363835,0.3539287177984516,-0.8059073004248802,-1.138997025560371,0.38960845860731275,0.67626434636523,-0.12918538239943728
0.5222884789639844,2.1456790026204247,-0.24517929760000676,-0.35840017572834,1.5451261159205254,-0.7516105409728114,-0.8616504165855267,0.20047671339540754
-2.4575166695594826,-1.3900248921723957,0.31396442311383077,-0.25416193598696585,1.2424704669195854,-0.7807048184703089,1.0507277557347416,1.1031864278325727
0.6890612333752221,-1.5629343548559114,1.003516541233315,1.081680564041354,-1.287951815010952,-0.30168984743354504,-1.628144719408292,-0.3481694919483077
-0.3876188704602871,-0.7715001340789207,-0.5657687869153513,-0.4137913304175819,0.767071566997924,-0.7703832182207465,0.609882509533903,0.36942194305534065
-0.13804100816435486,0.5894329510779117,1.7388133928998564,0.9919309093372343,-2.2652668627544212,-0.6579616745158439,1.3605189273971126,-1.3347274970249987
-0.913527021522955,-0.9264980718173305,-0.22523674419147902,-0.513685954694581,-1.3564436247895937,-2.131625448782471,0.54508928014427,-0.7419455973325915
1.5178677443541528,1.4190580324355326,-0.12209255482835622,-0.5187139939181533,-0.6517750214650834,0.7683165428935597,1.3232892609385263,-0.6644553229610477
2.2396624055310053,-0.4284695256475137,1.055017223000081,1.540565998162393,-0.9254841564149737,0.495765142850276,-0.7563249602287874,-1.6940201590328579
-0.5011611212843553,2.191481739042965,1.3127970307141978,1.1449038601536543,-1.2619880785928486,-1.0962820117878214,0.8324887811751579,1.685244897277497
-1.5296959816708005,-0.6313492920135956,-0.5550542306067675,0.06246951478257327,0.1701490357737654,-0.2177602247408911,0.606754887190166,-0.18030343663696857
-0.8709539257505322,-0.20442697548472683,-1.002505447650323,0.7266061056672992,0.1516104079690598,-1.0190337374349243,0.5255648616730649,-0.04833458030255058
0.7660268543454997,1.1581045461791755,0.06913601288623333,1.3973336481294483,0.31486357920441127,-0.38486425235241023,0.15010108889062126,0.1491133510738417
-0.7460098451327464,0.6031703198064953,-0.39672544152348305,-0.6903864520084205,0.15062545261818805,1.1707825690555225,-0.17169218218218651,0.49013975150187716
1.5081817148882268,-0.7876834522397936,-1.2913913328030395,0.5059881435908684,0.7254877432509161,-0.4154966456373996,-0.2982224764174531,0.5895479657910188
0.4395565967264638,-0.27132638347694626,0.05041455715212886,0.03449771446207065,-1.2270249884381752,0.9782186949196177,-0.37106530033948176,-1.6673114964306974
-0.01963917021920915,0.0057669724707428045,-0.544949543389656,-0.36490787372792066,-0.7820037595179289,0.24050486876757318,-0.37817319352637535,-0.4067201463081386
-0.1354894089249433,1.1010674619727945,0.9582111687849968,0.12872852274731242,0.1999251086904877,-0.10935257262196708,-0.34897144799210644,-1.1161517541371537
-0.6796449060097559,0.41480721725499814,1.7265620129091677,0.914517826371449,-0.8465190551499162,0.38848863937303635,-1.943784176567749,-0.574787853930063
0.7186784886787884,-0.15090142877021226,-0.3116929187978124,1.3957085623499192,1.2944663911531435,-0.27234610550009974,0.7722464025075051,-0.4596256640364235
0.8879553041291373,-1.5218735746410372,2.339945873353175,0.7099135367520188,0.8259499953616526,1.3363006847919445,0.1283215018826992,1.4523121393331648
-1.5634566201509208,0.6333346234270594,-0.10409230988081292,0.8035669034551491,0.8768406528692557,-0.9303426367170603,0.17138118427578622,0.915898554479477
-0.9495529622444501,0.7340243778620813,-1.064710136487008,-0.13021212830403878,-1.7459732484386146,-0.7270269100935179,-0.8223699437250176,-0.5646421720709504
-2.322233682482489,-0.344433333260613,0.9254479891394718,0.6534509466051935,-0.6535798077124388,-0.266995550168352,0.6972908354973046,0.6485284409448134
-0.09324090966969598,1.3237619913630951,-1.1273625266390324,0.7040528750663478,-0.7665173481967217,-0.5866021688775908,-0.6365809884805285,-0.8298850136645918
-0.19157580368247015,-0.9286439266822997,0.2590357656828827,0.006849622111208908,-1.2269415513909037,1.529057344938933,0.46870846382388065,-0.3253321943769024
0.28160132558850887,-0.34083794607622253,1.479781480491713,1.1387030992754394,1.3614745042694953,0.08989449526145521,1.3514613020479338,0.10892426877192689
2.0199002889216207,0.6049803866705662,-1.6845436788410963,0.9347282065632786,0.5110842450029446,-1.2158814323119196,2.3202346766832362,-1.2108011415143058
-0.6738045259709151,0.11682025643487123,0.30649684997618176,0.613392773031599,1.4325920444206957,-0.44849126084497215,-1.8542695820785504,0.8174968817308853
0.1192061812994608,-1.2475811318829342,0.6019944713953811,-2.091782552033885,-1.0464801266413748,-0.37007879155304524,-0.9346372729138432,0.44678433383417265
-0.7266051119735871,0.5825023262390281,0.7743055540042486,0.2589175089003925,-0.4883304108661461,0.5924022941698099,-1.1064790986083104,-0.03393909669733174
1.1104384377953105,0.46045386946000844,0.11210734348896098,-1.354280272131763,-0.9576465550838956,0.20398189815159257,-0.18751791203971782,-0.21431320468473686
1.201269789129131,1.3993057602753767,0.23304334322384165,-1.0421386708825962,1.7383419355480083,1.371357497033244,-0.3544635088683615,1.7316707019124462
2.5821431920247684,0.07266636168781644,-0.3732446920389174,-1.5970797369649314,-1.5876866335606816,-1.2876554141632681,-0.047317318788037944,0.9619204825942723
0.21489208618960892,-1.3442459143928231,0.6727196993403688,-0.6935729493075282,0.540797840539577,1.2781001187046508,0.996317855984073,0.07456531787137291
0.4657755261478139,0.4275186833001165,0.9124973651546153,-0.34315774870475696,-0.3364216706730642,1.9088803187515901,1.4953800839770617,0.4476592276292009
-1.2926512079591412,-1.8254843231389197,0.2872199847881949,-0.5371711559888532,1.543771642677456,2.65770867158686,-0.2844566476949124,0.6676082801008059
-0.020492713716814607,1.0947510500942708,-0.7867639036063794,0.71616353863193,0.12984077090717527,1.9852208942080316,-0.8568463824575577,0.005617056217721624
-0.33789562756100006,0.47836493743894015,1.3184254394206694,0.1124662183094628,0.04585615360193455,-1.0482438457544543,1.8653606332137955,-0.9709613280706735
0.264194838148204,-0.6858119187995517,0.2549426787736025,-0.10021989585539659,-0.4442243279439107,0.8970363074181626,-0.5433964507855276,-0.7095934265159148
-0.8038889510078746,0.6604570817706187,-0.7805846773742314,-0.3441200508210219,-0.14038458469044804,1.1104449920672157,0.36344326158853374,0.31850054175546466
0.17236571849193047,0.10395241781999809,-0.14847479226405536,-0.6896499156882525,0.7510077943868262,-1.84063131400561,1.1666529883558097,1.1205550712207437
0.7955719527534343,1.861738423754124,0.6339093186038115,-0.5674157587622392,0.5137474702508336,1.4569134779032267,-0.44889758893008236,-0.3543155677758076
-1.524742647432545,-0.37880049239350916,0.26917858383507415,0.6142289836482272,0.9367337172085577,-0.8316313907827413,0.457013386437591,0.4674758396653376
