0.43769237281887186,1.4978727426324077,1.4868070366617365,-0.3542924097583178,0.3393052886157475,-0.525620278087433,-1.8274094364863664,-1.149599539078685
0.1217319920978506,1.2953874734072035,-0.13489318884154766,0.09956143807144738,-1.3539184441573555,-0.2589718235772485,2.298640036297218,0.10112287552384326
0.7647945107394444,0.6676181224654527,-0.5284766150275716,0.663601230736778,-0.9310157584029612,0.365041588548412,1.3996440576003881,1.9017600335458893
0.3179728380380292,0.614957112848492,-1.1905126474655408,0.15645994699626775,1.1696497237365682,0.038691542970196335,-0.3411450460285155,-0.2976512595729554
-1.1929648578540202,-0.6728213228421032,-0.7091910580763656,-1.2688187347044781,-0.8619539865402424,0.20078223621617394,0.35032474007920317,1.253597102002472
-0.7023789275884694,0.4599351608100385,-0.1118924422987567,0.8635329895607295,0.5875023479100729,-2.158594159434595,-1.763691507018527,-0.03795013105182415
0.7235281667687011,-0.6974374613606964,-1.298503665151855,0.20925678395627273,-0.6435164890257563,-0.5948147262140984,-0.9336261627674693,1.82458918966258
0.9063202386886798,0.5088210338686193,-2.1143561052236097,1.453176394252854,-2.253794693506916,0.9482185915080237,-0.44475400709486085,1.0610649483500418
-1.0026660231779803,-3.1883863920539954,-0.30864194358505054,1.9201365489827424,-0.7997425386661801,-0.9022840162535913,-1.0066593015650052,-0.47129399442387115
1.063060192222548,-0.2566262533699241,-1.4908959413424734,-0.14329593684454112,-0.3354266188744121,1.098689761911957,0.2108442983939626,0.6630395773307908
1.0725265565121747,1.0334516807374199,-1.4073198956010402,2.000826821544855,-1.1538914681532189,-0.061481108055824484,0.7824501558194016,-0.6089675840675541
-0.6147760754539777,-2.952040923449399,-1.1071872847962352,0.46464506076599194,2.2942192308666773,-1.7191444583703117,0.6902971960054674,-1.6811581944038851
-0.9198928498318204,0.7453451504311965,0.39500588699833683,2.1362781520760614,-1.3565477942866935,-0.20521469607286894,-1.9669460275688024,-1.3752860770721842
1.1894319521985313,-0.3310316792384207,-0.7695706324816765,1.0880837893634758,-0.1391192545497541,-1.3153333395113074,-0.9393162718049755,-2.7876508581332686
0.8138566470760327,0.01888369720136746,0.19019783137369556,0.1028605782292386,0.3177552194126412,0.04404147827388282,-2.160588681349082,-0.37158569598161667
1.1881610394469115,0.6633465508560951,1.2501482782971782,-1.8163556431044465,0.9971402500783859,-0.19077935726415704,-0.9449885611251087,0.021543267692845314
-0.8851719989043296,-0.6328365342680339,-0.17055566997518065,-0.7664932318176378,1.3543062042638871,0.6325513724356236,-1.0953248257645485,0.177600976943542
0.10128645613769911,-0.20012720807707035,-2.6155039565619354,-0.06863477883142573,0.6976021316088545,-0.6839358987910341,0.01599501501692077,-1.2312229542049362
-0.6572561474116148,-0.8281336914460093,-0.4966296312647618,0.5101228335627818,0.9358944868738491,0.15744264171905384,0.4009391241745581,0.8730080652435901
-0.7549176323203434,0.17702685333075893,-0.11335320440041154,-0.2281464074315418,-1.0706700033378398,0.101099240700227,-0.8438239425307815,-1.0660080540134693
2.522604083224958,-0.26702453889821337,1.6608209426808762,1.204314295990767,0.2660378663569129,-1.8374617982541346,0.7819186074316112,0.27441872749778307
1.0126786294594137,-1.6015117705163906,-0.4630426112128365,1.5684765906882363,-1.0404471809822777,-1.596117682752983,0.547496646262851,0.9444284772870548
-1.8525378046719376,0.9663567102749452,0.3663900105650779,1.063858267627423,0.5010743262910536,-1.7275284942111147,-0.5613920746058091,0.7477742223541148
0.9086514863406994,-1.2489333111596486,-0.5242723611422744,0.8001584120772035,-0.34029076803249114,0.6433300198082014,0.07954237443494508,1.636817004042367
1.4419435490980388,0.18634238921053065,0.386268293168776,0.5945215328125758,-0.8714590614764046,-0.6287271446944601,-0.5586947850202002,0.01482984103365971
1.4993805266726976,-0.3194556893669118,0.8880072355157482,0.31199279848705097,-1.4909594091015392,-0.15223226683526198,0.23045967716427995,1.1112884033072736
1.255736893862003,1.1862742278344534,-0.1636979474251965,1.1794905179457835,1.3211550162207022,0.621176085091199,0.09829587889803033,2.0035248226214613
0.8054091471279229,-1.7159407527986206,2.0992467527276037,0.9138517158059245,-0.03247620534643996,0.9653403309858309,0.47469523182228207,-0.8977822757649015
1.8398969513721728,2.108222769557822,-1.6968127442354883,0.37617102958984827,0.6182078464371699,-0.011959592850887999,0.6833623766572824,-2.274970944629355
1.189157583635021,1.940964557930006,-0.0885875439932393,1.8848026463876477,0.28068251409976575,-0.18801242121912515,0.16214707419470276,-0.06977955863433555
-2.237541304639166,0.28750589584204916,-0.7592548532769686,-0.8979107843397395,-1.0207332157320814,1.991926617874595,1.2576224570678332,-1.4133526105332939
-0.06268382398718726,0.5529093226084,0.32623221185317164,0.4664733445357568,0.3510530695322517,-1.4798746825887115,-0.10848314251040506,0.14186809289693078
0.31247239467770177,0.8614102098908096,1.4022430052129593,0.4330916139153948,0.7779543079584111,1.2237922684141593,-0.5960706622659501,0.2798471482611645
0.5907564570162608,1.3998524685861673,0.4548110384276996,0.4328239678897772,1.6803040936367937,1.4490549775617019,1.748877701303463,-0.39478483835716593
-0.87834929911037,0.8227542459536719,0.14824250336359054,1.0386809598224573,-0.24885789592143748,0.4353300943081422,1.2378284666029038,-0.441426156328139
-2.48660900347951,0.9742084873623252,-0.5943959054970278,-0.37893207615630564,-0.3492437004860738,1.5666314146371894,0.4638017586818168,-1.287228876222167
-1.1016349605721356,-1.1920256072361346,1.1590497993963296,0.2081710709971,0.8140821356653893,0.36819036386906184,-0.3737900055798701,-0.2337153611669411
-0.09220061748287334,-0.5490394839537401,0.0800214836657388,0.13378871653818838,-1.146583431166637,1.948564174296993,0.7862599316242063,0.20178130504491545
0.848164378367995,-0.12796956337926474,1.1105004463942547,-0.8097476642220593,1.0647584401848529,0.5760566951236284,-1.3794316962215558,1.3662049055630634
1.2111919316153377,-0.008755018897591078,0.0657221393132582,-1.4055706062329203,-0.5922111282695791,-1.2011298728165822,0.14943766138832568,-1.913456141756023
-1.1709806616055947,0.6182964968703372,-0.9755634916009177,1.0739159899482489,-1.2896219038956094,0.011381602344205998,0.9678879822877139,0.29563347996038114
0.012466195682352925,0.3298345898877703,-0.18936847552343292,0.15417522438298106,-1.309419596883292,-0.3858224793172332,-1.0587408723219922,-0.880548614729456
1.7846522887694136,1.0397230551183354,-0.6403318976534841,-0.15405191476645186,-0.2675194532505998,0.03687261929919717,0.508218953495848,0.005478674961935002
-0.6809958792145515,-0.44370449826678066,0.25746410776252265,-1.1620099331241258,-1.519226650410139,0.7549697290682965,1.3445117771181814,0.9936933176515631
1.0119826760175743,0.31638072910398074,-1.8026917392069528,0.32912235396555845,-1.1365966838686448,2.3281085116711737,-1.2701773423094123,0.4846035116681276
-0.6576131024539824,2.3854960020021165,-0.4257962980112681,-0.3643316452532955,0.5027840857392322,1.0346018421861554,0.7009901867070186,1.3894745294372544
-1.0186871200314906,-1.2419087646437836,0.8647596667634823,0.6127423345344347,1.3631492593392984,-1.5838202112754594,0.3228454441112394,1.0098549597948887
0.9703232954010512,1.4089381593923203,1.3377858600073365,0.6762978393283628,-0.2629851289362145,-0.637477278338737,-0.5168764471311965,-1.499444265666209
0.6407699370126819,1.0785556081461933,0.9268996395656308,0.3923096025974456,-0.6603977609846265,-0.26205891916105883,-2.813518469261536,0.7609715894232264
0.5942142904720659,0.8129785827630437,-1.8387968919514017,-0.11889337676253148,-0.8134313922490785,-0.384491532368788,0.10669406432263996,1.1532361629423056
0.598652962236088,0.43684231705785037,-0.8977547352973555,2.8376089850879365,-0.514760212043079,1.5563835388840757,-1.0781358664217002,1.2314511312214225
0.2866807066100562,0.5845065364285169,1.2835329640148088,-0.23634750743853744,0.13998715635880016,-0.45752667043851164,0.6806573952726087,-0.6204256631743258
-0.15896163495070065,-1.9086759383309289,-1.042823058004112,2.52459174575963,1.15159864580465,0.719180104870367,-1.332693495513365,-0.02072033251884764
0.6850709482017225,0.05356425929176467,1.1434621781125185,-0.44384103155595583,-0.6471528481737784,1.2042755254581174,-0.13634774886004566,0.7216161871118262
1.8448090630141725,1.1661465108827374,0.9207162151152172,0.630602570621752,-0.14745014235032866,-0.9280291143304623,0.707355325993414,0.7313608827442197
0.27290870783105303,-0.9985376331918624,-0.44038017679997515,0.23866965772515622,1.4919005843442286,-2.590110972576893,-2.359031056777291,-0.3995729283627074
-1.309124323052109,-1.113857003496056,-1.2849058769888313,-0.1166718196201103,-0.7622405766335502,-0.07071427834791202,-0.06791925712753054,-0.9139786748465663
1.0245301441159889,-0.6670646549180603,0.3165109662643805,-0.1601384228957879,-0.7262220776098111,0.3122249960012593,-1.0445050051467248,0.2791200933019429
-0.24976752542665998,-1.111694146541865,-1.2972850686287187,-0.68609469967276,-0.606615409745823,0.8299657522299596,0.35999741845079125,-0.8862206743847163
-0.2709690184793484,1.1556376833876576,0.4839090600296597,0.6859933006860196,-0.2157945002169359,0.8729846558032468,0.8821235241783097,0.17596736200843757
1.1471993409033125,-0.09186921474587911,-0.14358675326561723,-0.5975786706591515,1.842208803721271,-0.18623282664866783,0.6626778108755432,0.13203607365051293
-0.7451919736517619,0.18328020821272048,1.3118806904501168,0.5111459403298904,0.40377683074794146,2.5412225200476177,-0.10748491900856544,-0.546291805715438
0.13543119992289285,-0.2188673441628188,0.5409446343055895,0.7866999079831356,-0.058712240447616866,-0.38263966400318117,-1.1868665034210677,0.46553850715991635
-1.5262703989134032,0.9124440419086969,0.1828788596370495,-0.12775255337617317,1.0896998729259135,1.519149921137673,1.3202072221723333,-0.23801656542530933
0.5745558679468845,0.16716630231067134,-0.4672636933599345,-0.8275788650142425,0.3925029249959237,0.5803847275230871,1.1017426365175056,-1.003599742333189
1.3896930519784154,-2.0343314152682974,0.18485559873542837,1.3494113467165527,-0.417881173262537,-0.7274795721343157,-0.06526097663288159,0.8575396797123217
-0.11209786537700207,-0.226006795666163,0.4932998192045592,-1.5891461826464208,-0.9230926597608252,-1.2504313898925745,0.9858165997460442,0.3087908851240188
-0.17700532886884138,0.1385706450285282,-0.18412175833890448,-0.7129393449162442,1.6334399924510792,-2.928599561435971,-0.739660251984277,0.07153900089361907
-0.26912363787106824,1.4191448834867113,-0.3485436784843619,-0.34299067461968985,1.1992342050500757,2.050187789434655,0.13889950566523232,2.6646819198242038
-1.5763891765667821,-0.0823867742169117,0.8920462336241408,0.7279683469306006,-0.31246071827333805,-0.17917146348840257,1.1817921443680548,-0.14206510248113036
0.36597769591478374,-0.6242773634833056,-0.7110170772214707,1.462037049614928,0.06597244388230854,0.20181167958616877,-1.3452092801533082,-0.1632772793883213
-0.3961576432152238,0.03045727322251241,0.08173171800197525,-0.6093122761873817,0.42813526363309173,1.2230685175373908,0.5984002950047324,-0.21616293658206984
-0.7763995944870075,-0.45703801457031945,-1.6051213952902108,0.23458923378569838,0.8594513178629858,-1.2288864332806362,0.7496651157566645,-1.2047875511557766
-2.1326284387972407,-0.7210356383469936,-1.2922940610257379,1.8660642347370477,1.1720083430506567,-0.43725077554917874,1.168185725065232,-0.47389367993615256
0.6235901468983771,1.796311686322584,0.6442264957360184,0.17699828728691702,0.0634336432936527,-1.0305147074223966,-0.5070413291769715,0.6127722588017899
0.7539973260416901,0.14967664453562282,1.568514471926255,0.3829100917224159,-0.27011435387482186,0.5144807269587519,0.386389588513456,0.8415265165828869
-1.0405349949293776,-0.4675781405451525,1.532538223788387,0.35491975983248264,-0.11576844389918774,-0.08506198445383012,-0.3982604827320499,0.999279448258784
-0.9675213803550521,0.23418789356660286,-0.7225931822899916,-0.26986896172323965,-0.8112296898622594,1.5447300921918552,-1.0753494031972262,-0.9351605739494356
-0.7277582436006232,2.544475099949876,0.027361591413184425,-0.9822344561762957,0.5159384431802071,0.46429411083662087,-0.13405841948645006,0.18255052517458253
-0.47397635561972484,0.2547193961086666,-1.268981910307848,-0.23571034740265362,-0.9072656389386742,0.6838157582424694,-0.20223453783161263,0.517618851142143
-0.13123093993442028,-0.3674810314792248,-0.9898222921549735,-0.3141585942955736,-0.6596784776019202,-0.06387237652961265,-0.9741222971248226,0.47899005365714903
-0.8142669152526848,1.399716209297131,0.1924059098086859,0.2859250957616642,0.0893614607515307,0.974669227195083,-0.18769245990478978,0.21068831231772278
-0.06052717816950887,0.1473253490839788,-1.8061719364122935,-0.40276847850807623,-0.8330641788484124,-1.8247243076874367,1.1445246380667566,0.6363609193947017
-0.5401397144163516,0.21965107063592443,-0.06366442311114354,0.6667226975436376,0.07199583664445507,0.291148113387727,-0.9413131099205008,0.34292890777203533
0.4211778128506103,0.7247880746928891,0.10777470034661585,-0.05007729564581483,0.3553577315881012,0.20276116501277006,0.5223432079255899,-1.337690817470274
0.5649333889586712,0.4746865822259672,-0.9060280686608388,-1.526952674812871,1.3091930069146962,2.0281467070169796,-0.16486954519426955,-0.08938380396229778
0.4375084299554551,0.9141448196066715,0.6291311569951021,2.1010079905396664,0.38000550297941255,0.34919648726788294,-1.2838176516108362,-0.7320810375555824
0.5277008022686193,1.860097730657738,-0.6585389284564711,0.6186284589765091,-0.7152755162194315,1.6326001121297389,-1.4370621683634175,0.5333224593050587
-1.1686555046850973,-1.9847048156569276,-0.7193197608553362,-0.05595099270875394,1.0129308176158316,0.9992257490932765,0.33656139550541053,-0.3047445483191776
-0.7616057977216338,-0.09070112040434546,-0.6156619744099936,-0.5096534046686398,0.2180508635654575,-0.6232428497392558,-0.25784484179733375,-1.5031071186576428
1.2596636067851494,0.7092478964286304,-0.5194923999178053,-0.5427583441171274,-1.0914404944623883,-0.07982725988766902,0.4197013360895069,-0.3374271045535077
0.7710532277503814,-0.4635836692418542,-0.40826212773720577,0.31284455714718823,0.8436612346007045,-1.285469534935435,-0.4203610049961798,-0.2798116571090954
0.038296590954708984,0.17043430114682645,-0.48081475720672906,-1.1335532169280804,0.020987637733504507,-0.025988140085077497,1.5485131741855382,-0.7526409043692656
-0.18388570813082342,0.06227974860357191,-0.3522772293808415,1.1621493923638198,-1.1024715851377183,0.8697385200689055,-0.5182481980450043,0.9002964665328254
-1.2407955455446213,-0.03483561317997094,0.6585224165966522,1.0665145010808086,-1.508524275766024,1.083924759834979,-0.35574440619831105,-0.035321293626122394
-1.3159573310618637,2.300576037350427,-0.46477313612537907,-0.3393139637974564,-1.2703032024086311,0.19674959072834305,1.1626502123230087,-1.4466853356479135
-0.10228609202336887,-0.7172239940907381,0.6802225263784457,0.8330153152146269,-0.6368096948880386,-1.8330111962908007,-2.084079485894312,-1.261532557574373
0.09922265821275655,0.597976855240385,-0.01712834494657475,0.02802335503694416,-0.0935836894814274,-0.06474271027507543,-1.15415327949482,-0.46164372550798616
-0.7654616048347946,2.272783754077903,2.063206324885651,-0.3365434352001011,-0.2575039262321011,-0.5006534858851935,-0.7187301456292948,1.2634234453808182
-1.4256497956637106,0.5549428533222277,-2.2994742807669177,-0.3692594061957228,1.1747724695695476,-0.062217891123336706,0.2683754866520041,0.9985977390882718
0.23163587324707247,-0.9841779506277933,0.4191170987170376,-1.378384403482445,0.11020698891688123,-0.4772452920215392,0.3398293462655908,0.4468422632624587
1.75124030123016,0.15676458716612351,-0.35688122332645233,-0.6879077421903015,0.17990957128353707,0.4095624081355656,0.9894552170962307,0.2414467405192945
0.12358438276571786,-1.5484599825141556,0.21016923740931195,-1.397167723285415,-0.4198252127302983,-0.055375236165730646,-0.2019603349286667,1.3072907341754476
-0.37242127331452773,0.0985221042081633,-0.5369785034139428,-1.8013797998214103,-1.037293617864051,-0.24807906416011025,1.8327733129297459,-1.1195419428471989
0.7657586433807412,0.8747845130516214,0.3473923391981165,0.9560679291939759,-0.25056274708611753,-0.035691380926706685,1.463985341680936,0.1092604282382346
0.8666647207643482,-1.2165760156452012,-0.6350656883611739,-0.2556263030178681,-0.5244233762499168,-1.1142377365837872,0.163657908411967,0.640481140804587
-0.6813959592469198,-1.6396636904289532,0.950000840662261,1.4318241403234317,0.38454424876714627,-2.4880789112703976,-1.562284210602091,0.6162039450429007
-0.41374541599806386,1.1375361192076043,-0.3221190087851306,-0.8887303760178868,-0.5959084582729445,0.7829067073057377,1.3024588550389433,-0.14697346523701538
-1.9284923913525966,-1.1016770751548197,1.6023005912028934,-0.2575633025519119,-0.012958107771734612,-0.38733869053576103,0.8168333846953467,0.863969705594822
0.24538902831485393,1.2394182325352865,1.0847618129092833,-1.350358433577329,-1.3897298188534701,0.09663097831819074,0.7523483497328591,0.48930261806124364
0.008301401504226823,-0.5684837189163507,0.13477976266075575,-0.0772455742561515,-1.4332288485663005,-0.9149309166419152,-1.4454705250041242,-1.7994166544279588
0.04379651843166847,-0.10570072740171749,1.1904888033349774,0.14586977942141519,2.220239405923695,-0.14243572326748208,-0.911035119573602,0.32803884411599776
-0.7935813015995397,-0.5491472561573393,-0.053297897722600435,1.8597121116732136,-1.7633247751482086,0.6921140810180147,-0.8905706438045754,-0.6407573361436985
-1.5856359257284323,0.95081587394954,-0.13307884798626274,1.4075311856487165,-0.83830875375422,-1.1764528388809257,-0.46017304934981235,-0.3509007163399201
1.1350697482761047,-1.2983523952992964,-0.18994851613770342,0.8768220367985621,1.914278563897107,1.7094516702177942,0.21400379653068247,-0.018528058866918995
-1.2002345487233923,1.8335826825293193,-0.011174525821371835,1.2167736408293532,0.3481535607938578,-0.08904410711406667,-0.43548032120544844,-0.4422607960186083
-1.6409113613126844,2.2622406611852273,-1.5564542629588212,-0.17144332262253423,0.2789787055157296,1.302254187646781,-0.31127169988472303,2.78325436355839
1.2847055800662766,-1.585798380621072,1.4400779267576769,-1.2633625638977404,-0.25113853599437436,-0.09999702842870158,-0.18055974086245752,0.2970061275954979
0.03767585237299564,0.3367358145090424,0.13285477597733322,-0.07112009132732033,1.7931810689267078,-1.5521385812104407,0.6029466988452369,-0.20130435777061223
0.5028746780716197,-1.302540490851514,0.74723370893367,-0.8597431328626929,-1.7141269220838085,0.05708373504715402,-1.2971541302980016,0.30717432025002506
0.525882729608578,-1.599856170999308,0.4772506398800976,-0.09229166828119463,-1.4738573077632187,-1.1085435653511087,0.463432363212563,-0.42460101579740284
-0.7106645488773647,0.3370886423077344,0.20142269516987427,1.1040272424821518,-0.25838766264604335,-0.9153437007229147,1.0304639554542543,0.04651668519219167
1.0298836642112639,3.0317271595549147,0.40381609614253616,0.6348139507651147,0.6433417811184347,1.485951718593434,-0.3711104367265742,-0.9646852012281113
-0.29536145635358235,-0.7293700422040756,0.9244501866245614,-1.8260707015591708,-1.3076636378099782,1.1055037809202237,1.6963577220155115,-1.5136412202952243
-0.15956398184923723,-0.7358690115070995,0.9666708585815216,-0.7638767943020758,0.16343604239757364,-0.7848102539563336,0.7686490675952096,-0.29285755703527766
-0.45278488847968495,-0.7959910476868199,-0.35220313554058286,-0.8476524943007935,1.6331076010239314,1.153680820323757,-0.6335277339242301,1.1907010558331115
0.29776839870001665,0.6735564912626955,0.5743736118235906,0.25996666598986384,-1.5081448354556295,-0.29053849392925774,1.9954655058701305,-0.4907573911029538
-0.32672739667502926,0.3372886947422525,-0.14987740322308402,1.3378802651891348,0.7406207826007518,-0.2536501351918847,0.2214156899483949,0.3333213466539259
1.9189156036590644,0.47321701602600164,1.0836697263330994,0.31680104862110475,-1.0679788234055425,0.5132365712250784,-0.31136268965741215,0.5921617803976646
0.7547963157640423,-0.21302106613941107,1.2102647818907046,1.0236119105745232,-0.061430675523595955,-0.032712886097573154,2.1159698739210637,-0.7778294912318099
-1.1874738986668731,-1.8220598106270356,-0.9769885150302117,1.612969037397679,-0.7030297102210147,-3.723470666174685,-0.06514938616989634,0.29356467064756225
-0.9907939878481499,-0.297518611379974,0.7424678795170159,2.864596173228527,-0.5459892473563658,-1.529578389691026,-0.03355239299376692,0.48585098926752096
0.1251271576382789,0.9499403640043889,1.8766240282122681,-0.18786317803266048,-0.3985760214230705,-0.5324840857317947,-1.3025601527640136,0.6248768816570274
-0.6286985214623554,-0.9724155187083244,0.399252458876712,-0.060518223145983124,1.1329158312536294,0.18804060825340843,0.33253813227450524,0.6798366200892958
-0.5739284007608229,0.9057834080120066,-0.45769631136704875,0.5092957380174976,-0.41997466423362917,0.6172610092201313,1.55011253993628,0.700635509297781
-0.029103901622565802,1.2756005478328907,0.6199385473662993,-1.682691332645877,-0.4370455869430853,0.48418622996809546,-1.2557072408890293,0.5582228571362327
-1.8903014489367918,-1.0515082314620312,-0.9697134465622302,-0.06499927027288142,0.17555077355513538,0.3786327855523264,-0.8626805029763839,-0.5217321751606745
1.6064465830224244,-0.2270442658174415,1.7559408189783199,1.4387529399911179,-1.6762448219664372,1.0415096760317935,1.5076215014210153,-1.451187302563223
-0.04111301909518318,2.0213070794619474,0.3729338315281751,0.9932964488742254,-1.0887626553094103,0.7557550160641795,-0.12716856464523352,-0.42469031951664604
-2.3209363397149345,-0.8205015629568266,0.0365888521227348,-0.7420910667211172,0.8114566792598763,-0.8416213935794746,0.3498165099448313,-1.0645246514638005
-0.8703365179723461,0.0794353778820592,0.33206852561608075,1.2177573560254054,1.1015112712195465,-0.4148234735516508,1.8506578983002748,1.29058614988325
-2.080223904487446,-1.2502428706044202,0.37293683161933217,-0.13070221156034703,-2.2032139947569616,-0.06337663471337378,-0.6048658385735571,0.15809243277491483
-1.4743548729735239,0.7780600955039956,1.0982802857324538,1.3208156015645631,0.3791728207515245,-0.5756989824006775,-0.26311855823071345,1.0069269608667892
0.4431043142880821,0.6687796707790894,-1.3683942890743552,0.4444096970867638,-0.026791038713385288,-0.2777289311849113,0.7632752833908122,1.676736559323939
-0.5178029389472458,1.1323135766783028,0.17651359922757393,-0.5674389633880754,0.16573239451800892,-0.2866761282778461,0.6887723210067589,-0.19342467407922945
-1.73683566201068,-0.31618730489964353,1.037601931339753,-1.5854684170821516,0.6072779636945294,0.9138093130737843,-0.21101119209235955,0.32920388700726283
1.1262225410988833,1.0521359557722978,-0.24001180656680082,0.6942050578146598,0.672854291512712,2.8397100577254233,-0.4328228962540397,0.06164969186701386
0.6752806478393163,1.3931148319907625,0.8057456029532241,-1.1591133241535028,-0.5201768184965136,0.6020400598722554,0.37669564116852605,0.2561331160795422
0.31967779126633555,-1.1804543975015291,1.0033333022808857,0.3427281076286007,1.1517085341362905,-0.8336154539252041,-0.014801035785890376,-1.0701232324739969
-0.40368951785909124,-0.8084521328410091,0.6170173588446365,-0.6930998178190622,0.3116550544168718,0.18374029489540614,-0.302273422148583,0.423075116243092
0.34881420331818347,0.3722818445175182,-0.41901083755308427,-0.9405470719267534,0.27500069370166547,-0.15264339708348465,0.8805821621062804,0.5872038489863529
0.6592462060998073,-2.338926351990623,0.6322038810477854,0.913304613844786,1.186418732209557,0.3748905792264897,0.03706535173062769,1.7487007201220708
0.16205703470507055,1.2422924340086354,1.155535171573264,0.5817396436314354,0.33368733158503205,1.0884658683234716,-0.546323197981663,-1.9209111232606584
0.03344486803497044,2.1137834014060912,1.0550225656296128,-0.914729766007487,-0.25750070595129704,2.419774250888367,0.4146711960536581,0.6103969101134864
2.582180964972259,0.22977960023189864,-1.9011919686008347,0.13453646153781368,-0.8485098740426029,1.5912483814354124,-0.7158570814703772,1.31571509012258
0.027568719880819936,0.9885040792212036,0.1047899976382292,-2.1985762468498105,-0.19705686492202373,0.16566333840238898,-0.5709219561979403,0.7655778684846749
1.9809250777370748,-0.42215266442792854,-0.8772590874587363,-0.4714490748583272,-0.1358961500125865,0.46152400554351136,0.747522543013108,-1.28885163682543
-0.02585001424761607,-1.7766976842696731,-1.7474048909226514,-0.41153853408890945,0.4515346823726506,1.7398469558178031,1.0252391125210085,1.7781435954749891
-0.45107378133153414,1.8140904562794826,-0.8520923169098389,-0.4094966016842142,-1.2627469027470672,-0.4454419498150144,-0.3963910689921311,0.7689634014067819
2.591063392872538,0.66095681299279,0.4003660472931569,-0.43814442264268366,0.6067305371034166,0.39485880093890724,0.6536525413316651,0.1771300520344498
0.34279967258460875,-0.0748096883753998,0.013201002894918946,0.8486119264868768,-0.9379882522317475,-0.13341929355050927,-1.005902569803429,1.1955130058800356
-0.21924707700439494,0.565883102145012,0.604807705386136,-0.011016767915523798,-0.06916158191532569,0.541894382406786,-0.5352490451602409,0.9254189194537035
0.850112053853832,-0.27049947582824035,0.15896021530793006,-0.1720051374686291,0.4475048347550882,-0.09068811254688992,0.8363091714775017,0.3867423045485982
-0.5862571320435169,-1.4653570854153428,0.055886785688748414,-0.12117093617627278,-0.618235461170757,-1.8129085863836374,0.4219206602098243,-0.6545960808898841
-0.9247362436090191,-1.0065696817471208,-1.6180900025236307,-1.209454984646571,-1.4871257828967832,-0.9016354642808605,-0.11693362991785552,-1.1307801345747224
-0.044100090929550216,-0.07062953259380787,-0.5100247909544848,-0.7377347061337265,-1.2021067319345635,0.2068285657822945,-0.30268117906487335,-0.7332966785994313
-1.5365937741540514,1.0913305208785145,-0.5838646789010469,0.13246255076268626,0.4786061616878156,0.20083945533057254,0.9724337376173345,0.38444231560967335
1.1104536540959926,-0.32852091642366904,-0.7517476816491061,-0.10275479705658783,-0.731529424325521,-0.6639480620743365,-0.064518255392382,-0.7820735161961218
0.2675628884791444,-0.21386496696875193,0.8277349430761831,-0.5820220993447704,0.5361494638003821,0.8164085411787833,0.5949161097261924,0.8113800337103658
-1.330202145362344,0.006488608130278925,0.40642548373960363,1.007436442126624,0.31292631780794017,2.4673216387200547,2.2675353760749766,0.36669789090215005
-0.6949736522860094,0.10992129111521524,0.3892486372929276,-1.0599101574298837,-0.5460294575472225,-0.15853814372114355,0.19965989494891762,0.02551580762274587
-1.1603594887335853,0.9591437291362241,-0.5407069119364637,1.7310742152718581,0.975379106799328,-0.32157033410942,-1.4561898320130078,0.1292248699744099
2.2478057349628395,0.026666462754091125,-0.24723256182149994,-0.5133275316206318,-0.3863321231430399,-0.0896330237429477,-1.7436630834713391,-1.63432269802039
-1.4844623166631385,0.08264602151139464,1.1193467612064765,0.4918235917243003,0.8232307867668197,1.257458901644176,2.368274936614215,0.9673216673590871
-0.37492583355877496,-0.04109418990874872,-1.754649536987438,-2.184762613586015,0.7656193104577143,1.3168293164048153,0.11100026094187176,-1.4990146301566518
2.067935445658416,0.5106881679954969,0.8107178951844966,-0.4953549286196516,-0.07313846271451883,-0.6884420295747156,1.5188420874289423,0.982004232034949
0.4365384921253551,-0.7582962123194008,-0.7250298596409438,0.24333144120286868,0.6521018400272518,0.2448280225781116,-0.4168599893722447,-0.3733440896980455
1.3059244334482776,-0.32319769637361273,-0.3870174595604699,-0.446993641733871,-0.5509881577977082,-0.7844674440473871,0.06546250932841635,0.2658957524775591
0.1633560165049368,-0.022593962850816135,0.64644530489339,0.9279263347388975,0.42801467370352,-1.0062754620948156,-0.6198376343463076,-0.8954555378759163
-0.0723013389438869,0.12218164461020202,-0.3700819303096451,-0.46445461379341574,-0.06966901312893518,0.09821142362172482,0.556509541012548,-0.0718329986706823
-0.9084474404107975,-0.9846659614236205,-0.6267245108569126,0.6263085540523496,0.3550732872331477,0.6914189208616202,-0.6377407055254984,-0.2846784032605638
-0.744549685421326,1.3115696027586061,-0.03244452998035016,-2.0711594388825256,0.3050507092340918,-0.49321476188336877,-0.08570368071953244,-1.4093919545369258
0.7232456129908623,-0.6886244791617885,-0.4584197663856509,-0.2396951904531747,1.4572309728991069,-0.5659434893763443,0.8134341325401687,1.3954205291734951
-0.3355061939133901,0.950792310417359,-1.5838317677746923,1.3298524302287187,-0.8411368165096265,-0.7334046860716608,0.599796257507436,-1.4762418736063656
0.09191148662338745,0.4354412340825122,0.9388730428940434,1.4959656671993264,-0.32737760608203836,-0.11931209962238572,-0.33377325826432697,-1.1019945521461012
0.303922000172076,-1.0181707114322973,1.9415518143882435,-0.2733326853111014,0.219189705962433,0.8017022071980169,-0.6194804615834847,-0.07352851618545547
0.6359474869149239,1.2931681660402161,-0.5369948871883716,-0.6458643416435066,-0.2566253199076773,-0.24990270949091858,-0.06242786118036244,0.5820014464270804
0.4257963804626105,-0.1866756705156629,-0.04797696559118342,0.8188084315625218,-0.20934984874622511,-0.018958274863593604,0.34038152411388944,1.1965636175853387
-0.4315843116155102,-0.7884976239481152,-0.7345823271003904,-1.151006760038412,0.12266560877983405,0.7768343835444784,-0.3172101847333509,-1.1929459442332464
-0.16747390826565417,0.47886332134087206,1.3545188105691544,0.23310055645092945,0.10306907330828935,-0.026894272190992267,0.2351712456251845,-0.7406148571329187
-1.9996215819702634,0.7592983142185203,-1.0496005789841507,-0.16430990649047633,-1.7409372318834377,0.11846186799035315,-0.2867314951969501,-3.0407363179252673
-1.2682637038304825,0.9712038710130567,-1.0014579441996423,-0.9829444654004834,0.3132526230782853,-0.25968542078710183,-1.3783538698613853,-0.5899372184914483
-0.2176714711126619,0.29855448713559013,-0.28046135541767414,-1.0033464788863498,1.266281236351699,-0.17762452382529745,-0.1696187870207856,1.2320739316306275
-0.29965529001678176,-1.080448400108951,-1.1975919973426299,-0.30274813135254935,1.2846148622282507,1.0387551159295783,0.6263829336599245,-1.1775980675378388
1.2084433293941321,1.4473732366023722,0.9680671244219496,-0.6006687281238402,-0.4155876027848931,0.3709052566690818,0.4595187485299746,-0.020198634553573548
-0.6982827715998876,-0.0093431412392631,0.21770438234750633,-0.12945498322780838,-0.9355695863877835,-0.8251434799372228,-1.6439258899285114,0.3790208002694981
-1.046078536220087,-1.9162568066546493,1.8444628212997072,1.030111881938963,0.4343653464977231,1.8989148001629428,-1.2499689504994136,0.7781228302404163
0.312006328359666,0.9492944515601154,0.3817403852318298,-0.017642740841077146,-2.19982964458034,0.458988128320167,-0.19479450443862778,0.32142601274841676
-0.3195874935703242,-0.12183373508352721,0.7842174804553221,-0.6367751523035473,-0.2628090179606699,0.5809914630017319,1.4846797446246125,0.5838252611122107
0.6230298658558855,-0.1602262111256107,-0.29086597619174054,0.4590453677589376,-0.36928119360794365,-0.3364112315829727,0.7327487419306159,0.8544464666690642
-0.7019130008309105,-0.1891488079732751,-0.22246321808068406,0.9232486109152467,1.573316283937403,0.16233683469693297,0.7101509270660248,1.6808432913816427
-1.5149772356300983,-0.20736054917884503,-0.11593957340981156,-0.37704699165192757,-0.057692256949234945,1.7588804840203471,-0.4966051733684809,-1.016802448125351
-0.09938318784151233,1.0506482838253317,-0.6379305257370534,1.4537876990723082,-0.059871784928987336,0.2637014553536649,0.5604180581251733,0.7528198566621952
-0.2951690868882094,0.736416255081065,0.2938315399891773,0.5003114871998416,-0.6733246397913578,-0.6335292139569365,-0.5946212278583494,1.0572317634625685
-0.5839136608593009,-0.2636727768418165,0.4137689276549317,-2.5029872083325717,0.5149204379258752,0.2161462372450754,-1.3204294098609501,-1.9542810462151585
0.39144478927608045,1.1486109730868557,-0.32034083439593186,2.1736577911418564,-1.7015316152845044,-0.6262221310782724,1.220424063520594,-0.6759601915383869
1.5314144792602467,1.1084461500169989,0.5293969481711,-0.5579474489109395,0.7143661268872715,-0.24473516345164106,0.7154186390704579,-0.9238318922360178
0.8601801227722881,0.9426408721205057,0.9009841680029411,-0.556962040335785,-0.25325577013043427,-0.34599588021990363,0.15950086486118464,0.6669100891772092
-0.7709218811082895,0.4963780434365162,1.2037159248418492,-0.04950736868477745,1.4907660143641313,-1.3170886073342503,-0.3409332323121042,0.2882464675982412
-0.3605169048450556,-1.2029864825443937,0.40893921820601725,0.424904189056568,0.7071433867502699,-1.7040127973129418,1.3862391722803626,-2.545962774131388
-1.5137012977007431,1.302630951383156,0.3944977004759826,0.5081375555269741,-0.8718470073061694,-0.5037930101821944,0.8372830412112383,-0.4083193698069865
-0.44931420388566057,0.4106153558441552,-0.22709821117034526,0.2368834789993947,-0.2785569806162922,-1.0529127906059101,0.8197358866713136,2.1372207694947707
1.688783775315089,-0.17097650937368783,-0.17025266789031915,0.011150892773800285,-0.6188793866584792,-1.020845166652121,1.6673647272290515,0.6335049985218325
0.3486771724408617,1.1632071426769048,-1.104542494021188,1.788255938603678,-0.9382205580173806,-2.152332823709729,-0.4401313407476274,1.3463195570183786
-1.2293998974162124,0.966067047469197,0.2768813241640865,0.9595486082504119,0.3833733742081594,-0.6580928871399092,1.0681415112970685,-1.33935250794982
-0.5213147599002458,1.5964720574257785,-1.917916130032766,-2.0891809124292062,0.6055810178537706,-0.2916010419189788,-0.41829242159447666,-0.8850143431902594
0.2343366651492799,0.6142962820955274,-1.6508167310609991,-1.5912722011235378,0.9580323798015952,-0.6471466415473137,0.11307349402085576,0.0307633134616226
0.8998754821891749,0.23610141564823509,-0.27488315372385,0.5161376987070304,0.11970886737194293,1.9047080184392402,-0.0693345649127897,0.19605061405879423
1.7971039086102787,-0.020698266593474266,-0.8943193859049573,0.5538778739127748,-0.42624445361083296,0.2097777652003885,2.1712148656203465,0.014447806596373434
-0.6406824416409385,2.240478480614603,0.3332398462536501,0.5477663965903062,0.5791827605844251,-0.6396044123885052,-1.4867020976489158,-0.5133764049204478
0.8666664741025397,-2.762438104803622,2.331668156357426,0.7848650959070564,0.2648016508512367,1.8891658995304603,0.17340917848146878,0.3546355505131769
-0.9786839016130532,-1.496879145266237,0.16419174418781568,-0.20848046774799767,1.3751351462554804,-0.5525727165674622,-0.4730982774481909,-0.21273224314094785
0.36663491529059905,-1.0714053012281437,-1.6981146476082445,0.2917082825269556,0.7239313650986302,-0.2590182901648859,0.2531012489239183,-0.0011840582512712015
0.19789823397508907,-0.2932081700066511,0.3184072087334729,-0.197689869405599,0.30988591080657674,0.6786074144130406,0.18073399842399185,-1.0790021173567863
0.13523761823912797,0.8144877354722517,-1.242715106675201,-0.32311326966704484,-0.7683561173232436,-2.0381418572538963,1.1153394940326784,-1.1866796058847942
0.783160567425238,-0.24246363886809078,1.1827277852901112,0.682486027150069,1.0371176883940234,0.28149454239157096,0.9442314634500171,1.57361356583417
0.827914904304961,-0.6399085084264949,-0.7075724014756756,-0.6564880501312018,-1.0341731680420059,0.9675031983904694,1.784815466511717,-0.7465337665558532
0.10294110178749158,0.4016922349995895,0.361136713255262,0.8488914135661608,-0.365622075197964,0.5040892003605347,0.13349561414495364,-0.6784915171213961
-0.8155925967440881,-1.1769693368179297,0.6249003856640568,-0.34376268237150565,-0.8481164491541479,0.6430758419947996,0.45068697587284634,-0.47866879104475873
0.29271441892178396,-1.4465439881457292,-0.7680738820081003,0.37629077030526464,-0.5100848253784909,-3.4349431577370404,-0.41843179200101166,-1.8503474157214321
-1.4163209336911382,-0.2852172455453098,-0.08962350120995219,0.37875462332938487,-0.3222305517194317,1.007326041304972,-0.667117544646888,1.5573427716076287
-1.0125237787513726,0.2259242205799863,0.7284708616237161,0.2259903987056333,-1.8194499139766216,-0.6123817732034093,0.7780655582787882,2.1890131011538316
1.6975109958205854,-1.7324600871054323,0.12787109312836092,0.812959916200077,-1.2130675206299018,-0.22609992338784837,-0.06716671395885923,0.20755511202278937
0.1614937659805609,-1.3786439102093044,1.788888306551788,-0.4334100556409556,0.37616125058407507,1.501544502893714,-0.5372216277655779,-0.1396095157830187
-0.25005120950316684,0.48235417196344105,1.4798037253981209,0.7389066691946528,0.10687705140937527,-0.5116741053094364,-0.5785534595689036,0.3371261294978259
-1.409153852815675,-0.47654940124916634,-0.51630131903958,-0.9821742117473199,1.1148506973839594,0.8864414236441589,-0.8642729875863427,-0.7226667713647545
0.5982226633495243,-0.1469771243890237,-1.6793605915267922,2.294148364468264,-0.5414289243393163,1.0469708097660149,1.211700291320633,-0.8279873291120264
0.8165506929755286,-0.8229864988823574,0.8366439369964467,-0.17574309207836236,-0.9995592523487264,-0.20290082494132325,0.12886995142115476,0.1058374264298834
0.01373093321731929,1.050216255502334,-0.6388914499555424,1.0101457786559922,0.2954795696445376,0.28975579594645223,1.3544467085338763,-0.46152085411289795
-1.007242794196454,-2.2247517882309618,0.11764337881695983,0.5277322205572665,-0.9648297858722275,-0.23812724500781093,2.254311307183332,0.9075845231974322
0.9247235684573308,1.0918759942361886,0.2047050182141852,1.2466540346609598,0.7951545551144177,2.189512142284011,-0.49067382365904005,1.912179075544053
0.5594991818477578,-0.5728924599334326,0.17427847842196467,-0.45227067815944877,0.2770071689712931,1.517984601757763,0.09033655729528954,-1.2250214337166554
-0.2823364173999439,-0.053731558999593254,-2.0957386117905576,-0.12071483664816345,-0.44351868767724306,-0.32069655882781467,0.351589775256188,0.5406898117364882
-2.129253042404088,-0.8668381825262461,0.7195966336394526,0.582765859969733,-1.1015483321250326,0.6151391140015093,1.3579299934826323,-0.537132131451811
0.7094327907573256,-0.5531293017767945,0.5878926288373689,-0.6348456779624261,0.7914383571987428,0.4735940529032217,-0.772234218566985,-1.0182992652099325
3.1245413027267444,0.10894002273311444,0.15966268155334443,0.8567110991256083,0.9345765569035901,1.703012497393041,-0.07766715040243782,2.222463193157517
0.7034415736285644,0.3964999875598175,-0.32555943513850427,-0.8628860398859698,0.3005127897164678,-0.7774736100282762,0.7570021868012254,-0.7396225638346544
1.7338026186537923,-2.2941731253310715,1.1840229733781862,-0.40597253573344105,0.6705591031747417,1.73329684441341,-1.6241344486327676,0.8515171494070665
0.013984223401180544,-0.1423049561807663,-0.5947174014866422,0.9850168914588934,1.1047016122252942,0.6422620479813901,-0.19127908857683182,1.1763551532618193
1.8831344027241768,-0.39447424475014486,-2.665055943517295,0.9546533436269412,0.808072983135457,-0.4431593823195289,1.4870179811955229,0.7989361212915417
-2.595321861188813,-0.920498809914913,1.1404216255522355,-1.256031294012039,-2.5003107443241888,0.49586803123546647,-0.9083333156428955,0.9804862571741225
-0.5851148397247585,0.7410607682415987,0.673816390591272,0.24704818435028023,0.45662944719534576,0.6856329460234175,-0.7671331614151583,1.2596977713279478
-0.20336982986554802,0.5941250394703136,-0.829438631560784,-0.1392593162712693,-0.16543940238083918,-0.18448861425666185,0.6031342002916188,-0.7851413776188216
1.3829537842056963,1.0735615699997836,-0.25699379600837646,0.8800597197608349,0.1251791179514522,0.7345002772686218,-1.0901901583984948,-1.919731873999433
-0.27370817461312397,2.097135816098907,-0.3587822062084595,-0.6617405845319235,-0.18610816258206597,0.4082609496707325,-0.6316590670679392,0.5795421960040419
-0.8330918207629995,-1.1962014566186951,0.26003824912379125,0.5323300507693647,-0.5228006846491345,-0.47735735512787525,-0.41656954540941304,1.8325408816525042
0.20862485713822698,1.2374523048633854,-1.4148146411873743,0.28951058538783736,0.35822817249288047,-2.7319392613025935,0.4967535043551994,-0.046164830211062796
0.10570578700747005,-2.1511479790236976,0.018553061768214474,0.15228649689095286,0.7255514941296669,1.4858506328974765,-0.5678494144336385,0.5333149761981106
-1.150879693148079,-0.2766638404002031,-0.35432470078953043,0.05783524485155599,-1.0623882072342918,0.4933912427046277,0.07860950913185138,1.5838812993516396
1.5382211713316403,2.552725771671588,-1.0461644200803268,0.19568245283439822,1.0679281319271037,-0.3943411868689217,0.8875393678413231,-1.6805663624762803
-0.11764005181121578,0.03184895032111254,1.1455484069525883,1.3980675162447442,-1.5926388498142616,0.6993110968936125,-1.1675327015721306,-0.4885561382587971
-1.4037394037644484,-0.5746787296909882,-0.16470541842188727,-1.3494504952378636,-0.7006165219798757,2.212013160748805,-1.544151901963263,-0.7089449413596715
1.107537456087994,-0.44074094803061264,-2.5357919185880524,-0.33116244607694506,-0.798216862675334,0.2670187517236455,0.05490516532598606,1.8677274784823754
-1.3518955808140867,-0.7454523575100257,0.6451049600001435,-1.4446223732059091,-1.151626827994543,2.2036072466805066,-0.0694372184475526,-0.530959747849619
0.3699188255582581,1.782453268075567,2.275020991696288,-0.3448108910853618,-0.8025263691236596,0.15458836735099066,-0.6121230982945698,0.5781959419520063
-1.1074928715502297,-0.7319528481609305,0.5592148075269585,-0.12583948007110007,0.23093601253300927,-0.8975201862937495,0.36645943979157775,0.30202196637703516
-0.7538412413641846,1.2560997948752075,-0.8683654035246327,0.8318178710130807,0.18718929131093626,0.327145487506348,0.05411802911538027,0.1250824366209756
1.2414902062362543,0.28239966275374906,-0.25472658823272454,-0.7528310063397282,0.6436722570867317,-0.39727151990845316,-0.159917031068488,1.75934563283787
2.327842804889411,-0.928865049740619,-0.006937890237476661,0.15672238087128793,-0.8943140256556021,-0.06960201617059342,0.958315210105884,0.43952511017433277
1.4297098992948343,-0.4215703771726931,0.7525768497732208,0.4727233356865359,-0.7120671279471851,1.1089368490334757,-0.3927251720614551,1.5140960103710515
1.243703296834175,0.9745759864751863,1.3954607430415074,2.215147195660704,0.7391037657591931,-0.913699190301632,1.1485808539798419,0.10334050632213673
0.2868798908970225,-0.11457453901509881,-0.12032202564545587,0.2928734478585213,-0.29181143364140505,1.6631158916729085,-0.9210226434557218,-0.7512025707414298
-0.12792965414980567,-0.2797844238376305,-0.9768697347440812,0.29883897828676725,-0.34533919937359725,1.456214303069159,0.21698524233388847,0.2704498107726245
-0.4208502695171299,0.2584631140517212,-1.3192005678950907,-1.4854392319700542,0.5910003700514146,-0.7017827986969707,0.12112509033615074,0.3964870725158606
-1.2701701753189258,0.5713239162825479,0.21330284642151798,0.06760331183626844,0.27517538431637967,0.8143726941361724,-0.8719711033471509,-0.5519910374597327
-0.23568282944250182,-0.9436196192391693,-0.9565634828866665,-1.1702962052876247,0.49806522895292504,-2.590405873117877,0.18118490200676965,0.6776669611284551
-0.2602369727444011,-0.37004339788947493,0.21356080441812114,1.3053048009419572,-0.40173466052146994,0.20921258687303046,-0.08589918775868081,0.8464918368051189
-0.9834274975378686,1.595865853412319,1.6927452582243747,2.044711616519642,2.411940382258935,0.3349323857178948,-1.956233662290685,-2.893188733482612
1.3997824660041935,0.8367769843648855,0.43150657551114263,1.3149830591792562,0.1516818401998482,0.19420553599343776,0.20651243247817888,1.240634343201649
-1.8207061008186012,-1.1404166638390338,-0.9994000500244131,-0.3272596268485061,0.5976955598975399,0.021617957854633253,1.033282970051431,0.5096853069875447
0.5169498450688149,0.788282688896777,0.14126285566142371,-0.02135580051103617,-0.27637516830034337,0.9542134832094252,-0.13151609684934412,0.5123852403517002
-0.1718556880194841,0.3863252613526309,-0.6452159003159186,-1.1525190927867113,-0.5832949259822265,-0.9235836570431721,0.5538070740134137,-1.5043214333728905
-0.010045609502236177,0.3292070642439647,-0.20584391939852767,1.5099125963030975,0.2452838061872637,-0.49052665206569196,0.47807900568410644,-0.44107433033313553
0.1787211505087862,0.7377716260596301,-0.4289688259605247,-1.1505275231889391,1.1389037445951302,-0.8164664881174727,-0.5624152085665928,0.5903365580775236
1.6701290724571933,0.06035898295136676,-0.01473487580708685,0.3440680393741505,-1.1701409702374959,0.22430946580683447,0.8856438627478788,0.004111849357802301
0.08547636940005351,1.8858458291415643,-0.4083930474114102,-0.35806782235574847,-1.2681464049752538,0.7995235922026193,-1.6350451359612137,0.9024257043950686
0.33253029479251517,-0.055477218582591796,-1.3003107626641457,-0.30079450224424314,-0.10485036858178184,1.3520959978054383,-0.19175560097229896,-0.43856221330308653
0.416694306059133,0.776734714068114,1.797928540450342,0.5484382428368108,-0.8639817484409656,0.1858055674914145,-0.13512832312548365,1.8204630162683868
-0.30025888505589154,-1.0015572802151929,-0.9968422311468591,-0.47793606067667704,-0.334073156066066,-0.1968160773107513,-0.5108097206763977,-0.4885391300933972
0.16048370132525172,1.197961375028974,0.11140848439395898,-0.022249611593868488,0.7268566647812946,-0.2382409726681101,-0.8381055858727677,0.8798737094145624
-0.2843641071465444,0.47055682146335787,1.0164133134511943,-0.7195938214208566,0.45553019315825205,0.7969421019769379,-2.2001892321173946,-0.7588692725514329
0.18303127552060783,0.8148569950522613,0.3047366012350476,-0.39317990405057796,-1.1551715502582116,0.07549785496974705,1.8004146661629887,-0.6134881846992349
-0.8285570251256156,0.971789535366778,-1.1576548146575385,0.30558100865603305,8.374822003522305e-05,-0.5798013443280092,-0.05696622668343248,0.2737546339617803
0.030913847026079185,0.8845318754533515,-0.8309596487607488,0.7823497299713055,0.3877609888433492,-1.3233564493556431,-0.8558278807666818,-0.5503243187807639
2.000494854558322,-0.22735045038804422,-0.15262651780306344,-0.2941412639674385,-2.409008726363416,2.5850132727339,0.29305870787448624,0.7117981694257308
0.7202784848518612,0.32248405648406836,1.8290699033304545,-0.16656462084503826,-0.5999351596005904,0.19874262522265304,1.6232993658502237,1.2052413774561825
0.20099637150204697,1.4471470494035619,0.9200545546268897,0.9546502552179029,-0.05549826101666234,-0.3486081527448449,0.09221532014289499,1.502608683415079
-0.4901831605803509,0.346565290998531,0.31863264562392263,-0.3224627985747992,-0.11187672718097867,0.5413312056973208,-0.6709036727433052,-1.6606109623316792
0.7217637763647121,0.3503690906856439,-0.32779716131419473,1.0463622304296052,-0.29933131576106525,-0.45258465588182517,0.8595844647162736,-2.4432821110389504
0.0894580608636896,0.44887140429078265,2.3323185462526412,1.1896527619610175,-1.3153296526071123,-0.07693232842699958,-1.222408879544045,0.6420613235942382
0.23024514137424573,-0.42353082347089904,1.2328552320584791,-1.3425938000998672,-0.4494244123433802,0.688974118661283,0.5973691678125294,-0.5658255650835606
0.9651133222618209,-0.5310567453326839,0.8378655516409969,0.08540627216919838,0.7995453461220279,-0.04081180422918911,-0.42048208079252847,0.0022639547525742042
0.7901869866473231,2.1260747062533447,-0.2805026359033114,-0.7989293763508437,1.1562850291968512,1.2956412534392137,0.7887982556609828,1.0747590612114661
-0.03257208030423591,0.5764017506150567,0.030164731878145445,-0.7288342264704185,-0.9400450346586495,0.7723322324494569,0.3828362561859726,3.0488655198115806
0.2799614034646726,0.7574192144622625,1.6561662649708704,-0.23224260649313888,2.2101510575655072,-1.3681564498599184,1.465202115217256,-0.20863269004629884
0.4394756939151029,-1.0280788318251723,1.0768377399902027,-0.773265742417352,0.057442721400904305,0.6452442211671274,1.2644109268093944,-0.25699126456039545
0.49081457885987917,0.9015278791363818,0.10031458524975821,0.8352901996767831,1.6127504013254,0.6007536302631376,-1.4055672308375375,-0.3637574830380698
-0.8166876757150181,1.06128357274829,-0.08336818352795372,-1.4145926180940644,0.6898233923677004,1.4500964912086995,0.35146530820124916,0.48983279779011785
-0.21999564682129527,0.23242444373142399,1.810811465913065,-1.7875601796210911,0.448553425174339,-1.7183020960949793,-1.1455363021891158,-0.44313000449026974
0.32759457536956316,-1.5384712754943215,-0.22461372918031636,0.41652353107010653,2.4423641218789633,-0.26345400768409416,1.3873643038628931,1.0676539705008004
-0.06448348070233581,0.9303868575408323,-0.5384349461604447,-0.05038690308913454,0.19214974062426,0.5180477918976489,0.22733255273839065,0.677304845300383
-1.0135251421156355,-1.358098261993625,0.7918162367108132,-0.8126982462779601,0.3044337442489002,0.4041223726663701,-0.9936782850811108,0.8300655393822973
0.6858907478407491,-0.1562908757903135,-1.6062651213336827,0.2782774172213967,-2.6141673802853274,-0.22561618668880104,0.47581038688662636,0.2112492814401324
-0.9838398811599788,-0.38448090973561555,-1.4973702610113122,0.6023885869318107,-0.6923978826295614,0.7695646140361266,-0.41893940903056615,0.41048742180575515
-0.9122838501071907,0.5210942098888928,1.1776110094459287,2.1916176381283297,-0.6288685841031477,-0.17126111197597277,-0.9393567416972007,-0.5819027378583312
0.7402741036225953,-0.7023982383238015,0.45814484720579035,1.2205351737027919,0.9864035972449273,-1.3130926600494661,-1.4531404963737178,0.5792793335346349
1.013306883948902,-0.46269151342774884,-0.564207311770655,-1.6784858319091487,0.4317657904436292,-0.8225050596475266,0.22559585619019037,-1.853748398272478
0.3372357666109174,-0.957481290665442,0.2931649067741433,0.5070305342414827,0.4221554615014107,0.28093917411655744,0.9295237375003066,1.1730269004693694
0.45916893241403955,-1.9234882238172364,0.6365074312881536,-0.31343331086565135,-0.37190000039046495,-0.5432552654563766,0.3016764735802313,-2.9031277601632466
-0.9804014222090578,0.061588993813317505,-0.06622133711018115,0.9437490398917409,0.43432180033341994,1.9423427740147672,-0.009244944456259441,0.7573370819361347
0.2417961016329624,0.8235566941638274,-0.5912313898743012,-1.9690997315142058,-0.6085784722943087,-0.7806613748467068,-0.7469609454198062,0.06938820619196115
-2.0738187266688843,1.9461835555996203,1.5104786277439013,-0.8107295811890549,1.107029817935486,-0.37086684412823306,-0.15458116164266136,-1.7943730968638738
-1.393402219643878,-1.6448015168689665,-2.28323378286094,0.7932143864361175,0.020120127801916517,-0.5761582331614923,0.6238492056059652,-0.5425580506874261
0.4549381481566865,1.201836509737286,-0.3321021972572027,0.8009143759594737,0.91761160911692,-0.8579076387242764,0.1271843169883755,0.4334973776992666
-1.07262569611555,-0.6128399932627481,-0.7423673612227634,-0.8079577508643357,-1.7882017445035956,-0.6923234045901389,-1.092721167153034,1.4397463062165332
-0.07713263057347185,0.9725027202624055,-0.05831915973548924,0.5017868663667536,1.1664331578694815,-1.1119349190350434,1.0133899984702581,-1.7549139205653725
-0.4721239083828518,-0.36215355431039803,0.052531621797314604,-0.5209777622036748,-0.5000183996212055,-1.7289961114800798,-0.24353228964322243,1.0432346728247155
-0.845566080162655,-0.6464902575229432,1.319366803445321,-0.3744215269935056,0.7877996231739247,0.5520535925841568,-1.0697004557166665,0.7531478238012317
0.8957294126486075,0.2654600897290047,0.31324951021326247,-1.9356674806877119,-0.6366055211242516,-1.9552186333121941,-1.9100397482607168,0.42738687239328027
-0.17671280034371087,-0.5392384685965228,-2.4343950929010147,-0.1153557177533038,0.6528239966143534,1.4464537241490398,-1.2280258982123702,-0.10469747957824381
-1.3889850906717534,0.4465277779790174,1.2954807609774721,-1.3406204623696891,0.7943771204179515,0.31536628572137704,-1.1080247042606737,-1.6329824975911253
0.07093789800913869,-0.3464225023833898,0.2420081717403146,-0.6844353611223905,-0.8349894278860092,0.03995706368846572,-0.21658203893200645,0.13371929110342234
-0.21226774584336422,0.8440024261364434,-0.1399728879521547,1.2973889652975543,1.1947060187895664,-0.7404148660665814,-0.8845300292707392,-0.04602516780850736
0.67556973535879,0.1764380685019441,0.16578339687728932,-1.0104410097412875,2.610162952910003,-0.14738571824273383,3.123340957543665,-1.3857819609894162
-1.4536692390284927,-0.39919193700038513,0.6954819789512022,-2.024254514367912,0.6139572311784521,-1.3136358898512572,0.6115782837458491,-0.42835339613993934
-0.6697212601848046,-0.9596050056256993,1.6365325249329414,-0.17030284578039784,-0.47187709260091126,-0.833369776411586,0.8654379915442236,0.28416037005203343
-1.1152056029745732,-0.50627573225541,-0.051078048197928785,1.3803534715242485,-0.3782245219679514,-0.39759431349350305,-0.3366130068112766,-1.204529144231681
-1.4637928941212408,-0.0901800499026338,0.8106935271363426,0.4593363940607097,-1.3526617565303245,1.2541657767306589,0.08550315907070909,-0.26964782682988814
0.7319880539018024,0.06432969486363514,1.0422714731700438,-1.9076125677705251,-0.37850398812333663,-0.8708998994729543,0.5113193103098719,0.6312647121538087
0.45887802240732756,0.26707755209449724,1.770715975703018,0.6094556502983871,-0.474594893477359,-1.4393133418074928,1.2243319428995156,0.3639226102905826
-0.5902281421650863,-1.6005817539195295,-0.005169559151771247,-0.5621925829828595,1.0029799627998812,-0.7335415326753361,0.5605627955062079,-0.860354504679289
-2.230997727508016,0.8460979687743013,1.585885917801343,0.9724393471032386,-1.101533988755611,0.06624767624431281,0.42089079256954615,-1.0951777579798563
0.6204183478718898,-0.4881162802679104,0.2818244966166048,-0.37227532194341667,-0.7707431079641283,0.1319491908224135,-0.6768563071405799,0.7411815706434083
-0.3804554443589344,0.5483068983798836,0.414450614303774,-1.6243630722322473,-0.7025781939095129,0.034676533488238584,2.2004960968569143,-0.2675381655149606
0.8624826089168416,-1.2697483750300407,-0.10960307270712356,-1.98093550856483,-0.3421954966408085,-0.05916806611816459,0.3308318274965131,0.11603843046229212
0.6193435490035779,0.16354138900739704,0.4138881975032863,-1.1144726809231127,0.04075089956323538,0.5178848802756948,-1.9137000723743194,0.7178793130388521
-0.5277852558707887,-0.8051214361601678,-1.0947424538401331,-0.34073103351832945,0.9539304224517376,-1.6352353651116984,0.4618248208720248,-0.6599637658706363
0.1393692281624812,-0.31086669529754285,1.1196868700278435,-0.7542141100953977,-1.6359650429981825,-0.9331975516177133,-0.9929821283437116,1.192894621360875
-0.7428552915367153,0.752344966790547,-0.008576139011664988,1.7259288174238878,0.5572199240625644,-0.5347586628344472,2.754321681094696,-0.2878623614507855
2.816199308877923,0.6490326250169755,1.8803125044740847,0.14972113065955478,-0.8134983902633031,1.0044817671466826,-1.3317802726268133,-1.1224059076058135
0.036043730239185605,-0.07315521422792345,1.856669287660826,0.36541133796060304,-0.6621968995110051,1.1625763553080284,-0.769891421733762,-0.38162895907566546
0.4066351068350594,-1.3095347771356558,-0.05884202923158854,-0.16675570580867072,0.33755051158295446,-0.5997825344601024,1.3362021566549749,-1.9903675821693136
-0.5048505729573362,-1.6049954757410099,-0.8704934080103889,1.0152914862950386,0.7538963807904845,-0.9548800562048356,0.23929155753701786,-0.25860011749616707
-0.6219534927057478,0.910644940929592,-0.6909414755089268,-0.06038816722559722,0.4385616524802558,-0.3661185193913069,-0.5531416757354783,0.24186647410120346
-0.8893029247960318,0.42732880171662013,-1.062543060285823,0.340628938457931,1.2845370432776742,-0.6947871949508161,-0.7253738774479904,-0.41268327999393717
0.7142132606024837,0.4663296699047038,1.4650288817126202,1.8624039963297074,1.4328304965946348,-0.871271317636644,0.004905626098299818,-1.2197728528824412
-0.27692787647463996,1.293172922183941,-0.30479615157357964,0.7085951903093988,0.40072902036128866,0.6909357858538098,-0.24502222872795826,0.5970311437080543
2.491724998974085,1.561520071069824,-2.090324859371883,-0.43655441907276993,1.6157117766367268,0.7259088328413261,0.9189846316920949,-0.5814293215012375
-0.28589921719027267,-1.0709239484512134,0.019383058818666244,0.9932617904529185,-0.9460474127101408,-1.3375500777505107,0.14398516998513974,1.4457382162307972
0.4919219737629914,0.2918778047013302,-0.37839100715341534,-1.6202043080304929,0.12200541770152504,0.483479460039227,0.08293309920479353,-1.8078407938944454
1.124139331681377,-1.8002982706593977,0.9402684288950093,0.8855773440376064,-1.8069708027111284,-0.8410968466457109,0.3836732110468951,0.5753248033165748
1.2218187141583021,0.6855666268815994,0.6234231799878454,-0.5617884333956998,0.784011708779705,-0.3740248484163118,-0.43895025679923433,-0.5090276913332562
0.6689444912952023,-0.9821127158742506,-1.5267729643130452,1.5045928734162717,0.6170927586287367,0.7281702896797734,-1.088732538027623,0.3902279643238924
1.2323652498408304,-2.6320436202879254,-1.6230543533104,-1.2370141966029977,0.4390688016732495,-1.8701207922415568,1.874921155841457,0.48149903066108607
-0.431057125090529,0.8273401748986963,1.322109788528193,-2.165367325327029,1.478068932670793,-0.8370181471961196,-0.7664395216649673,-1.1817822750513003
1.7844625798822749,-0.8088811729124388,1.2130297997620294,1.6766896341605038,-1.020439218316951,0.2810111175442109,0.13985003430045723,-0.7185381356966706
-0.5016709520134827,-0.3123673349279327,0.6237346026168195,0.6726259180552302,1.1068365436533618,2.8528072359718544,-0.4280814077875217,2.4010153341897262
-1.0649989031481613,-1.1800523950852229,-0.7006551758544193,-0.5785056445274528,-0.6289562351756753,0.47444474090181826,-0.09964400531321922,3.668176494992318
-0.9877326372006752,1.679321999548108,0.5868596799930877,0.13715236194929928,0.16249655153657275,-2.1612095155979216,-0.05648256044064679,-0.4310713150103296
-0.88890131719525,0.8100121011115998,0.905953325356129,1.776079568853786,-1.0589824853515166,1.4201744354936618,0.6510292401077504,1.3219580492658691
0.7792155193556745,-1.8452334880642633,-1.1388206884727734,0.8626368820258346,-1.3307160386467323,0.1862968802629058,2.769269582681148,1.0080998358251378
1.5948055628266609,-1.9313238319180013,-0.572786202349992,-0.9745128013407098,1.042505181817994,-1.835011384823904,1.4614718490807017,0.8535704153641284
-1.5192373234777623,-0.8038615358843963,-0.2718640376715044,-1.8483476228553386,-1.2525224724472708,0.4457803840735662,-0.2361599233111411,-1.064430066605571
-0.481137149316973,-0.36106719540370485,0.5233932312931676,1.1468147996477787,0.3233639813755054,1.1192656473740135,-0.3138901902619554,-0.5096422011648557
0.9637984158121956,0.6289578200471391,0.08046730264267268,0.7625745321700313,-1.778968314740298,0.6430681416213897,0.8606156838776549,0.9078470290393947
-1.4504712114463305,0.5608212309715793,1.025765686521221,0.5159551447017325,-0.04568274316709456,-2.435420463470694,0.2626127790777237,-0.11210642555633901
-0.05721874071887953,-0.14720151787263253,-0.11625877182829743,-0.31256387792302415,-0.9933205800569824,-3.1440715050888546,-1.4381114267524053,-2.23732350920261
-1.1532940182691067,1.0211221426091874,-0.9131067475771588,0.19708450651191484,-0.7402495608321398,-0.16318962048577512,0.3489571985324493,0.0003521861781181888
0.7757111946552147,0.5649084556651898,-0.9318194084887771,-0.37228880651624796,-0.18040631915236688,0.07012882578253761,-0.4765343331460567,0.24112254315284018
-0.4392483224160269,0.12663023829117298,0.6776401918689611,-0.4743188881881187,-0.038757734184696496,0.6769747128338445,-0.8287669186254084,-0.04527716902326699
2.1953923087481817,1.7695356066809793,-0.3941656473135078,-0.8036111708393724,1.395338953795749,0.9194261421223494,-1.0296655247994428,-1.0921831871242007
-0.6831694613446961,1.7852106015053408,0.8791830107871841,0.05194832323350334,-1.1339503549227405,0.8526076544947765,0.0820352895428691,2.029233702559876
0.7311219153963099,1.6748265288371575,-1.8460759571165009,0.4779190679500551,0.20467826886081122,-0.2795020893321334,0.359876828537469,0.5478593607078649
-1.3918511741447968,0.8744993876451468,0.14927030621292903,1.8722258753945664,1.1777753995547715,-0.21610615986173876,0.9271167910144231,-1.4136581173080263
-1.1244150581306271,0.47196518315848524,-0.33639311678205913,-2.0780611175667145,-1.724931255541617,-0.155461394795083,1.9169463641537436,-0.3819616248917601
-0.6454355477590399,1.0898286247593223,1.2428173827002538,-0.56875423158744,0.4790472605502855,0.043037252471935794,0.6391526187932844,-0.738648193556544
-0.9252569228904612,0.3991698268142266,-0.9948794235423644,0.4974892065743401,-0.4985831961983058,-0.6813652447324622,1.2464198938335278,-0.06759907872264144
-2.0001795557259645,-0.13676086975622437,-0.2780575915870904,-0.47124326251981263,-0.2409540722555908,1.466026641146766,-0.20844159518346808,2.869639440908681
1.4303490629870363,1.041182387828315,-0.22567983310955791,-0.12334657492810373,-0.38851559282237436,-0.8072325708937718,1.8826216721063755,0.5767380616992214
0.8759404441258698,-0.3234722859262153,-0.19444007928163992,-0.357987239513873,-1.0746336561930814,1.3108774592936634,0.8514188902117182,-0.9969494557741314
0.7255990559526356,1.4098290542340848,0.5461944533778171,0.02627960471249531,0.9284183508719261,1.5345499553899549,0.685403541614267,1.600528737468801
1.1512551563681757,0.4571022824689561,-1.741287032216093,0.17776857525080914,-2.1630543086562977,0.9340294746766011,-0.15686673375752205,0.5802400824735896
-0.04165902884846887,-0.8250029051893106,-0.9733766499480022,0.8295902717246757,-0.5666079352862461,2.0374984001258643,-0.8238174157803703,-0.6715583778304287
-0.21654816756507955,1.2370750549818947,-0.6998980048271572,-0.27783216563372254,1.0025834432312102,0.15465888637511666,0.8268525579573197,0.40935541746197024
0.8482162987638103,0.5747113468978483,-0.13936022737242815,0.818668592770778,-0.43511474744616985,-0.3605606677084981,-0.2425870415694036,-0.07795022948165188
-0.2847921832882049,-0.9544045674440216,0.9348029564079259,-1.2563371043189204,-1.3677682277050118,0.5506795199764551,-0.8195392309870245,1.16215671714858
-1.3839838104928766,-1.7535980333537227,-0.8665213668932005,-1.1524048567348806,-0.6480183601086508,-0.7514021495787498,-1.2799168662444755,-1.2661752797506816
0.9763246373854245,-0.5485434359682843,-1.4208381544962598,1.4275036163014316,2.4903072365169994,2.1626214801694346,0.3705762389011403,0.16274765086172266
-0.29445635322795016,-1.3743303846308585,1.2236326876121835,1.1450187039733102,0.9535987325272216,-0.849086753670181,0.5466370670879925,-0.14017431834922606
-1.8362243432779353,3.4620521583959816,1.631648178688319,1.1981352549522541,1.0486555830008013,-0.4373675569335635,1.003279617146236,0.8107554645071824
0.4732705149450255,-0.6880864712737033,-1.05789608016896,0.3146547846007057,1.4323001321005597,-0.9784119067186007,0.23987084523510807,0.8610060796250625
-1.1523781542935045,1.3718116975251358,0.5371559314370711,-0.366051945656038,0.617341182338085,0.5875219293751606,0.1291596834790496,0.4677134550499499
0.9911895678685799,-0.4801272834670806,-0.9358046896954337,0.8136944810354746,0.9436952176613116,-0.5628998773947356,-0.3777087570782281,0.04235529517522172
-0.07752371520443682,0.5580393090240081,-0.2966137933938186,0.9681710833093219,1.3511510923505146,-0.46307767746093753,-1.5510017935387126,-0.05549569363179561
-0.6107970926911026,-0.41372978284304407,-1.2396632219537642,0.17571020421165506,1.1630601719972047,0.527685132988082,-0.7443389491075494,-0.10845625666298206
-0.8150928827932146,-1.0530778040950373,-1.113009327085449,-0.0016812033263116292,1.3193332681610261,0.3616828879102814,0.012921308750441087,-1.171392364708578
-1.857072183977166,2.1759340719392535,0.5046968536354715,-0.9367833892088636,-1.6424751267898008,1.111529238733623,0.45722742563551105,-0.17430974378995154
0.06428532736022659,0.2979680541966038,0.8228867467286114,-0.6155171989080117,1.2034105919389075,-0.4828236665058173,0.15330909715003738,1.1069308666533024
-1.829542742470337,-1.2681769649852113,-2.2175710598630545,-1.133166180936346,-0.17645943161280495,0.792668982460608,-0.08274809336618014,1.1264470967131266
-0.13941447348988245,-1.155873885167919,2.473548874932093,-1.5843785390365557,-0.20731615267530684,-0.5184608702269317,0.610648880261822,-0.9925658860949087
0.6088738538952326,0.0705861736099676,1.0494485632133808,-1.076703019933097,0.6648302450837478,0.18989286915009068,0.22346998360491424,-0.8142189220286444
-0.9307848973773636,0.33132879235948737,0.22104909691943547,0.13210112236203336,0.5879601829414283,-1.8525090826525275,-0.8519860224390555,-0.6682554264105562
-0.6438687604605441,-0.6648796946811503,-0.17052779843906882,-0.20807104717698918,-0.8501039252752832,0.9021608752044759,-1.5159139734686322,2.662185006637032
-0.42715338227787125,-1.9046801838740657,2.4329102739724155,0.8211893314471028,-0.5227751843530234,-0.7324609407997432,0.8822981257388138,-1.1537402256600477
-1.429910313826075,-0.7574342971763913,-0.5444790555235453,0.7902451632387504,1.241118004133774,0.10764249152966607,0.11158045739270961,-0.8146500787147243
-0.5229517794380039,0.6995614336621832,0.4987818227443712,-1.017213060555067,0.6193308980333484,-1.3468426972143854,1.2418264301943376,-0.09786157601449363
1.828916801649909,-0.6282930623853589,-2.0792378686083937,-0.3434371913330035,0.34054985925815767,2.731326741253318,-0.767708242419354,-0.2988270814191832
-0.09154030943305498,0.5946090360916488,0.6236771976911234,-0.4117585272465501,0.9267024315681734,-0.09632851776475115,0.21474530716536652,-0.9086585724800739
0.9949478062212127,-0.5292625819869492,1.0809264564970091,2.028633168616783,1.4190756697241231,-1.576745361219954,0.9511979179485176,0.7996215927719915
-0.36686923873942495,-0.7142404645111322,-0.35001212008225185,-0.010528215655258886,0.08307974288574106,-1.0181489066259435,0.6339777130188201,-0.30749594424869203
1.2971954464131656,2.073427325982528,-1.1557009821101953,0.9893502821846094,0.30887440755923856,-1.285962040043306,1.0196322218309863,1.1934109493712879
-0.23664100534116486,0.25751143714350144,0.16048788298526892,1.058316173465353,0.2091602065910821,0.8461209142762498,-0.8632079219541896,1.776419093921257
0.03313823346825446,1.5810799278310586,-0.11919033512738963,-0.3080584405964418,-0.4557915653167781,-0.7215283871744345,-0.9226531851540457,2.382477548846404
0.28689519487679166,-0.24711210091935454,1.0229285829009431,-1.1491016373294554,0.5412527429652442,-0.8965053748210751,-0.5355094990739919,-0.8945595949196272
-0.6220930708245013,-0.7624816072873833,0.6923473832768835,0.06687578232688883,0.8739924901322474,1.8226791280652692,2.781770856120158,-0.9207143347663087
-0.7306524120745038,0.5040947540893131,-0.5647399063316978,1.1486818456110488,0.18631306881007229,-0.3318962285753151,-0.9750351652328494,0.974775961660724
0.14602231251118208,-0.892871643713813,0.01333832048476788,-0.6376167424466058,-0.06910243974002635,0.46190315660970027,-1.0655275764629657,0.7416824236950375
0.685105635354773,-0.6458830322648409,0.6360829145516567,-0.6011486361148107,-0.6286510718253411,-0.00954721292243986,0.19537483635869482,-0.016997345592454503
-1.134391359031921,0.599951891752739,0.7065871607548675,-0.1717824519931143,-0.7891234609647094,-1.912562609094776,0.18240130661650486,0.2727334252493809
-0.9340304883737924,0.28239284744784665,-1.535377814699186,-0.3631433276948472,0.9582248533243899,0.17156045690020225,-0.5272464921877622,-0.7962832063420227
-0.9151706416169357,-0.766706187333814,-1.7188122164917419,1.2909538990061982,0.717866891145357,0.14007074831888405,2.8894778134666885,0.6578310427858447
0.20167416164221114,1.4873393231279972,-1.1291664364507135,-1.1520458185803732,-1.909394323566508,0.8597839658966496,-0.13642713380166283,-0.2873397619866532
0.1409720906906548,-1.95401225256408,0.1365762577186181,-2.56287151997113,-0.6962239016600307,1.0527614370097182,0.5092015764491519,0.5389808948444245
1.1912646320944202,1.03094677008613,-0.3442860556102568,-1.1536130315996571,-0.6275989283988669,1.2485945128223364,-0.048988726786290716,-0.8970703214538821
1.7896876976628213,-0.7780147349791163,-2.58244279526392,-0.442478725126598,0.04674777210105858,-0.6787290287466303,0.8561829904783088,-1.004518286775033
-1.5205998017867057,0.007362955569548427,0.36463421712405103,0.07793921435383785,1.2829602484386327,-1.6149994555961862,-0.7084677620622348,-1.1866810611131482
0.1586453761909906,2.0081420481427874,-2.138389034016273,-0.9436968121982248,-0.29085545942136626,-0.49567631714033555,0.6641789303193588,0.20431283085013846
-0.3118079124852958,1.6894171807228104,0.9409681932094148,0.2292180651258528,-0.07226749538856196,0.7282701885321353,0.31071701135076235,0.032694180071098894
0.6136628297986141,0.9481746091679326,0.591892625090074,-1.4742363859705032,0.9246892878715711,-0.805928475792725,-0.6847743109712983,0.6496312519831151
1.43764744633222,0.9142278102820023,1.7266741994388695,0.17706180106919564,0.8804642447410754,0.9717666524939752,0.8975479326168675,1.0015402265239253
0.7810515928333859,-0.9106353965423712,-0.851893351942828,-0.3467733695541833,-1.0380624227802775,-2.032197449837619,1.2787328677172531,1.6632528515311618
0.3940699538494226,-0.9009083242515817,1.5171843933023395,0.06834351474853133,-1.1974002045549417,-0.8304219969815713,-0.12051102164589628,-2.106580787638325
-1.0705476665726397,-0.9372130976453319,1.206921837782503,-0.19608696467930523,0.6583438939055622,0.18064250994395345,0.5579051625395994,0.06935385585130205
0.43733704892002023,-2.5033315388426565,-1.1893446979182953,-0.23414916403186847,-0.654363073084081,-0.7934085121541921,-0.04100163666056196,-0.6687311084389844
-0.5095117843346264,-0.5861576539098038,-0.4957293416455588,-0.2778093653234727,-1.423944899826719,-0.8168127463342704,0.06139298564985569,-0.42509167595172365
1.6388965085060154,0.5407408385277381,-1.1488230823496448,0.40358052965226193,0.0466720546991431,1.129999642337228,0.9384628314300101,0.5845686952328091
0.6995419747001992,-1.236290717006426,0.7143921294801794,0.24595929561555555,-0.2524484583134935,-0.019590423434030047,0.639742082778153,-0.7304596343087361
0.19863141022930358,0.01830103630054618,-0.30201480003549697,0.6198980736565222,0.7381164781543029,-0.4749358802722442,0.66260744255757,1.288961786379577
-0.46300086542680363,0.3455239473876167,-2.628733731888413,-0.5918372125965756,-0.020721420083316518,-1.246552084255254,-0.8604257807280977,3.4112391659630523
0.21205214810446127,1.0726547169884995,0.19201617392727027,-1.6436681346683844,0.7544501699481896,-1.4946791168042113,-1.2690230684933042,-0.1524411123609295
0.4640701485960462,-0.6554173803216254,-0.5699778377229314,0.4717736218687439,-0.3971340708096648,0.20673361817827263,0.9689010133661548,-1.522382579086976
-0.9443227777407444,0.20326738327888666,-0.9515115759648646,0.004118882092267501,0.19655807317344384,0.15974684096349073,-1.0775399297240027,-1.0012120454720184
-1.132641868337782,-0.621953754724468,0.24142155880439808,0.8639704065034048,-0.3188613672349982,-0.6468044980535133,0.5909100415083242,0.39334921115025784
0.244306604880823,-0.5815306299981587,-1.9332517656275416,-0.5546322566607869,-1.207120241697904,-0.7292673624810161,-0.8787441701452072,-0.042062837586956794
0.6282380881972158,-1.316177738428542,0.9642212070316015,1.191520191685661,1.9249568106038963,1.5775229703107352,1.4274220485910982,1.253417714728633
-0.06990439968794517,0.06607582671770547,0.916887474478639,-0.7741801622725346,-0.5382911230776024,1.6961153377026232,0.2005368302872167,-0.1297254213851406
-0.7919926076874483,-1.1523937133176472,0.03207411236337806,1.6434851552099503,-0.006763707271408518,-0.8673060384837995,0.37979707860868317,-1.0166773941387646
0.8364899582456551,-2.7127865538555285,1.0736093466390684,-1.2124290229757446,1.088746541965449,-1.8496702972785677,-0.14966054509475452,-0.13669404409624666
0.4709042952501371,-0.7630640367383829,-2.035961026592296,1.1730912496328534,0.5517430545019325,-0.5958643436906843,-0.40656379030566947,-1.2357998050281764
2.3330476032331604,-1.1540646121821065,0.673286902996257,0.2755558272311053,-0.07991895718074878,-0.6412300264592212,0.9835547089162033,-2.0340852328408805
-0.5091320396668467,-2.1870030313196427,-0.4502501034301584,0.21644844717060463,1.252415466808904,-0.05998570528226863,2.58959784052917,0.878928653574334
0.09897365113920582,-0.15250488348050253,0.032110596469328456,0.28214285829035196,-1.0677682187463222,-0.971936202625807,1.040883906264682,1.0231994531129474
0.6697767243318736,-1.4185386898932446,-0.41458991782384175,-0.3671658841295454,-0.5710120543720718,0.36049617204793,-1.3215962054923602,0.7514881341200708
1.500522343848093,-1.055340811194435,0.6682091061286691,-0.6973078077514682,-1.3514917352567306,1.3217725400262346,0.49801636832010715,0.5250203408150456
-2.0853110235374905,1.2571106892134636,-0.16980992338434275,0.677482537922357,-0.3699889928184834,0.26976984761738154,-0.811251895341952,-0.6965850698386664
2.9188949409866134,-1.5658449647912749,-0.15667106473214154,1.0383161964637453,0.597141492055716,-0.06440101524229849,-2.3186708088577865,1.1360975869585925
1.1159799501490868,-0.7862394195057683,-0.19779503881882926,0.6321759563878276,-0.5448704040786807,-1.213047860196573,-1.7750098651938087,-0.18097638026997787
-1.3147369466825165,0.21569330402439174,-0.19666703366954066,-1.8622970818672244,-0.6923904770092121,-0.3626272561604863,0.7694102186842569,-1.6320218477117787
-1.0233209793146059,0.17043347139471152,0.6867677455401321,1.2257541325802266,-1.5023589360478302,-0.9219762113413235,0.8087726243976476,-1.336833352656787
-1.008575575738456,0.4573860727753814,0.06537747944253994,-0.812214199356354,-0.356387466903389,0.9498021004739701,0.5735911480475288,-0.27811861210825556
0.9534309104251948,-0.45767128283817265,-0.5295465787940428,0.4235694994299366,1.4839069486254362,1.3524056141969163,0.6442360974981054,0.884887484752859
0.33747102010381114,2.583652814386793,-0.762627783756889,0.5957452857379999,0.5924565333077306,0.35440959800413285,0.48641966607282183,-0.26707191915177275
2.470960140501116,1.6531428872329348,-0.9502305612500168,0.7800449593854981,-0.4940178560392875,-1.6166814659980446,-1.161452740893363,-0.5554092899558293
0.38329742897862235,0.8207984677707064,-2.490852519362126,0.23909429384828926,-1.6126623843480494,-0.13805313744016642,1.4705473494308015,-1.2211832608263542
1.4306779798495874,-0.07686086032348224,-2.3882479107780723,-0.11710006115999834,-0.38300539292769725,0.07697734275621146,-0.7840915602581077,-0.3614612491300542
-1.8889478531700201,-0.09849230530068434,-0.345450037927029,0.2312791456685868,0.18260300518822464,-0.7734217501096756,-0.002325425116054688,-0.3878348518622247
-1.1369190645026916,-2.2601076890154763,0.9008682225392072,1.3571374290164058,0.4851435061397928,0.654201869896323,0.011076489311161694,-0.7300054492990214
0.07642775312182175,0.15114776855911707,0.9702086958802687,0.427673213342055,1.562843428380091,-1.0260840370980924,1.4647669013888491,0.8319550516565166
-1.4117052690754122,-0.9424173266778799,-0.4536137087486337,-0.3876597560724826,0.1774354172224427,0.24466124899244734,-1.3632847381833049,-0.49819586298530444
1.5509773436712726,-0.44105833562112745,-0.9073676369609998,-2.118986198620539,-1.5046374978715242,0.13152196335157323,0.3405171346446096,0.009275496631315546
-0.720467944642154,0.7072406278756512,1.0151892444660244,-0.12483988295523586,-0.3443163396731382,0.3868807162578325,1.3815984323352455,-0.28395567012708917
1.1927774110665696,-0.1307596271715971,0.21478011107332623,-0.3412564969084746,0.29093403327291945,0.2809630317075893,-0.8851017295687792,0.9016499142702417
0.6507337845167162,-0.8570354319007083,-1.117347643001662,0.27209304183399957,-0.8928873244225076,-0.6931168457603849,0.5760469848246775,-0.2885290196611479
2.290107491698422,-0.29538186277921774,1.43820138708727,0.1916520461279082,-0.279239932381126,-0.2714894762714897,1.7079076329051641,-0.4779575434248177
-0.05457101256882049,1.1050908519812415,-0.9919729264341978,1.0777654448443168,0.08744311690017258,-0.0010523632597970339,-0.6258043533023343,-0.9417193790469179
-0.9405245039219611,0.4797470744824118,-0.850841421361915,1.0510621738601766,1.3509148271667286,0.4790872542201547,0.4991002269383845,0.3999163583408306
0.04081535954933429,-0.848162511411253,-0.011208511813370644,-1.0840139465913394,-0.8088041614466388,0.8855958104067669,-1.0167070557515692,0.8020320299385355
-0.9176966579392629,-0.7151658324341507,-0.902504329236163,-0.4312107294947577,0.04027383802382366,-0.62256039063863,1.0062896937620176,-0.3100604272282472
-0.16003617844733248,1.4326603797167392,-0.5754248061466345,-0.11754651259471098,-1.162453540926104,-0.6679599647932047,1.7730529758566227,-1.7026062057484852
0.23777281386503224,0.789039872506504,0.10182178893888279,0.7937503727193722,-1.13864206190622,-0.8773714667742339,0.5010609718757089,1.1161816365044124
-0.33605311748363526,-0.9365639741176859,-0.29912290557764837,0.22998069229852755,-0.5759705226941184,0.7674187227117901,-0.4350904294524522,0.5478151087092809
0.5766398234207347,0.23202061318420333,0.8460182115888729,-2.527437591605136,-0.3422851780622171,-0.8941769939807431,0.9316645321799982,1.1345502706382746
0.8968699670889622,-0.6484401005231061,0.2644207946265283,1.0556390484654157,1.3231978933317805,0.5258394849774541,1.4851465541226663,-0.13545181031675488
1.0721959929355824,0.550624917705809,-0.23079123953595745,0.018608723453459434,0.8957445740521361,-0.9016920660562201,0.6750762920957877,-0.12407621499370537
0.21401642155232115,-0.7273612252985563,0.5310385577259461,-0.8967973187443578,-0.4380022178389242,-0.2815941115668151,-1.078230171010479,0.2740064804348903
-1.0491831029720462,1.1130866521864606,-0.6706324279610466,0.36699149568044953,-0.34490018637335423,-2.011856378350909,-0.42633283307516556,2.0534344725335636
-0.019429072239934123,-0.17519333946473592,0.7884930064169166,-1.7044451623859467,-0.6002754413048095,-0.8534824478915186,0.5618509977527026,-0.5429478243692318
1.1978929663921973,1.7949409279668005,0.09726002772684357,0.1444582915104929,-2.4332832032158547,0.6384805990976539,-1.2772757185812744,-1.6851826044827283
0.8077171287621969,-1.2899533806683203,-0.9092021659355815,-0.6180948239725216,-0.5026145555596319,0.24038181152631027,-1.378988760942448,-1.3790603112010127
0.6436403857893679,0.07836589024220844,0.4022858901780674,0.47390387202294987,-0.4647692005979294,-1.2496755764308967,-0.16778924110183982,-0.33034937686541804
-0.8508406381383306,0.7469822102241823,-0.42250323058402034,0.6183123581482711,0.8320016192826283,0.45321240047514944,-0.5629894539499292,0.5641793239511962
0.3194000973548548,1.4333568430005468,-0.052884806937942896,-0.6766535147564967,-0.11587270850017842,-0.7678133329888885,0.7119421507819657,0.15895014637990493
-1.0406918171975692,-0.4562101477913146,-0.5392841756410535,-0.27098250721714684,-0.11029854945975855,0.48948438799240396,0.8268208259535526,0.21031112119864265
-1.2091315335901063,-0.34287095503134324,1.4067157739112144,-1.651346585051213,0.6613773611574525,-0.3188420864804564,-1.0039028417043692,1.8454031777177267
-0.5899541729206144,-0.05391115019520673,0.6031431738848083,-0.13815756964093107,1.7172609510898504,0.5869520201084293,-2.664802069118406,-0.8249530119066868
1.2147872532689175,-0.2436387607558762,1.3990425798960198,0.5190240665581298,-1.1382079181503497,0.7859188170658121,0.816129067056381,0.29735995043258
0.6616681029616953,-0.44521134447957306,2.434582932698877,0.4279814801722209,-2.208033628512311,1.280298464763795,0.7393665675672828,2.369310826926056
-0.19464720445176323,0.5656420169872208,1.1506594010503937,-0.9890565804010083,0.1616116044943127,0.48663135173481437,-0.05930184544690984,-0.7801389151204694
0.7486328940544579,1.0108434832929152,-0.7444455457576831,-0.6838446173251459,0.26234866764534176,0.5152270658851529,-1.140062641627394,-1.3533987198739725
-0.5236164117594905,1.449505584465877,-0.527352829994178,0.21174889858544219,-0.20379551536761986,-1.0805229062661534,0.7812579389505541,0.20670992974177546
-0.22355881783053716,-0.016037780314824564,0.3070332648485,0.5470177462835577,-0.19509247073545738,0.1553674997807165,0.25332602574119906,0.8831848589795063
-0.44467195551697186,-0.5600582632077623,0.7791778703059599,0.6878788546354385,0.6230411230801471,-2.1254575365709805,0.9963697336500313,0.22605430199346332
-0.3556153132135975,0.27766332947429995,-0.7761311213073697,-0.05935891237988149,1.895645227657911,-0.8576900173338481,0.11108442307485818,-0.6349139480557037
-0.5536833788073763,-0.06875320580662382,1.4906037571116986,1.3243802041293165,1.204532920728254,0.09906285051291787,0.12693617846462496,-0.31180480244124575
0.6163842643285783,-1.657187728687668,1.5137077226080802,-0.5005052096589981,-1.4199134583193724,-1.5900139795484793,-0.4927700114712144,0.32942495648848547
0.24422096157932294,0.9078606918327154,-0.32579868638964,-0.9557589189797404,0.30303661554792466,0.5629926698401351,0.6324444153000105,1.0566917508147677
0.01234283869598433,0.20541411337994653,0.15751980324776965,-1.1961764985588306,-0.6636058388639127,0.2492997465243628,-0.4241820271913126,-0.7866982715907613
0.22583805425043324,0.5804286203381953,1.6896708891559828,0.9563911888386505,-0.03179806213880399,-1.9962153089402241,0.10197436302559812,0.2860781928362708
0.18632279340141084,-0.21438089395445187,0.228861414411841,-0.21442921624248504,-1.0544777499460494,1.098759483598068,0.26495002240428916,-0.29538819304801067
0.20166304230628382,-0.2921714486509337,-0.6860119482397192,-0.18269665297140422,0.5175570684096468,0.6873143389103785,0.11153891605027563,-1.0865661689579273
-1.1297551135113273,0.2890895543887925,-0.21968161453576177,0.5574918457801376,1.065854488671089,-0.3405650955419617,1.1393205172937957,-0.40524335388033783
-0.6911774316651513,-0.039053668040736775,-0.6795699299063432,0.8102861912204472,-0.6642149367094976,-0.9253010149478608,-0.17355351537881084,-0.11739363798322497
-0.6713844485279729,-0.4215067919983509,1.7749157818253272,-0.6527909385844223,0.5335995647370939,1.0977475816559181,0.47359982417287627,0.62076860933561
1.037505659431757,0.6448018035995998,-0.63685234618019,-0.8277646647868614,1.5683370587253764,0.6131172715590653,-0.9382083669756719,0.26502520908338445
-0.23012594663637717,0.7965081224998016,0.22018642553980053,0.7396901232340685,2.5196506678873036,0.05054961724139454,-0.918218129773184,-0.3870347214099682
0.041911930354275595,-2.201559787905549,1.0202414945372125,0.025476170135514703,0.7583751065896032,-0.5691061890626676,-0.20267230350996565,0.6292467756876542
-0.624009782287924,-1.5844433535617652,-0.011559764476542842,0.8692923998255753,-0.8116552090472178,0.17705328429004355,0.11687691760023873,-0.7246530167096512
-0.13958220583264896,0.174529569926206,-2.3568928293561853,1.4378818345013138,0.38087612559712236,0.0790828261858626,0.01223460550531234,-0.7091332196651261
2.6121546952235675,0.7793484644781964,-0.6587635448309219,-0.9447996563022065,0.4203315223643192,0.11123992122397589,-1.6335893617488841,0.4502721881414219
-0.4339947311647348,-1.5488179666589703,-0.4155432492847993,0.39275718354605194,1.5915417564593448,0.9933381156626891,0.47756749295269846,1.8714761059600222
1.4995117281622203,-0.6272827570803078,-0.3888716351749061,-1.4203299135193173,1.00907406741474,1.688494051064596,0.7780093761887751,1.3845334357454415
0.34482337675911534,1.43451932732179,-0.46467983072851127,-0.9617472630801048,0.2937253616260608,0.5299282090838323,-0.09753733088074802,-0.08383686167887967
0.26631413001569615,-1.2207065819368272,-1.1205286301009323,0.3563518428056549,-0.6001132182118294,-0.4496751362347821,1.7665739746293438,-1.3856499630543695
0.02471779043518886,-0.23553886729958562,2.4340048090062893,2.5766884874856895,-0.03199917818203677,0.7395873985926488,0.421497380592382,1.360499901534585
1.0042550614729613,-0.07496737006261757,1.2769750791377446,-0.18227730291632152,-1.4833724974438112,-0.19922597786913582,-1.2800209864871896,-0.6331612065627052
0.3241534126693507,-1.0783661917151768,0.8509330638910174,-0.8393923526947942,1.4249788424460614,-0.16020989195763263,-0.9678685515081834,-0.7087194713014769
1.4826556287880426,-0.39190828587257925,0.06627348390120716,-1.4719674644543086,-0.7136296013208568,3.2287120431736267,-0.43711140042628027,0.11258670518715351
0.7957273012918156,1.1978366084291059,-1.333909262909743,-1.9115906958810838,1.0413947746893772,0.9901176751031465,0.1876386826887214,-0.45188768410257796
-1.589663252759214,-1.4005745697774434,0.9569787967291165,0.683259680994301,1.8360024616069712,1.1529415505072855,-0.06469244048307916,-1.9678734831634386
0.21274101724886788,-0.8723083560945594,-0.8889458536350848,-1.3927694838811073,-0.27498074519676863,-0.008600631852615715,0.21435584324669213,0.33588200373778376
-0.5844894956424788,1.099627009028094,-0.24024458191986656,0.12653950704445224,-0.508631411875411,0.7790854548652371,0.6970182713216583,0.3068387950527864
-0.377553364660724,-0.04461840386856487,-0.9213838084964072,0.43771206423282527,0.24870908094112357,-0.6711693853059658,0.8199698853094133,-2.6122236809794384
1.593924495832045,0.7127381793073913,1.0126678472831026,0.432234682706345,0.3419248481208549,-0.4472512279113143,0.19674214396255343,1.0673028537959373
0.7924700890225531,1.049666823568209,-0.6439850200681432,-0.5713035424355501,1.4468282992798962,2.3953547076144743,-0.7439051730947732,-0.36264974443860704
0.14867395828596522,1.6446337998912104,0.5317629153478649,-0.5889559354221728,0.9148091390947652,0.3110326496184628,0.8033708178530634,0.7344973264975106
-0.7111530277391604,1.5830768661952563,0.3163204587295348,-1.4725850822404878,-0.16821342598448677,-1.8844538041713699,0.17730387907502443,0.10691055856798484
0.07669637166218254,0.9997650685013036,1.0969323524133783,-0.5575806626298317,-1.2372478734842989,-2.0953088582804096,0.2326382842299114,0.5228477640831025
-0.6676073410162237,0.5359306505899377,1.1320150635313686,0.8725873233010069,-3.2072304889397207,0.6161887358774621,1.0293674817309302,0.46841678968143285
2.39804042954031,-0.8690570805172133,-0.27722229401424986,1.8196887739916405,-0.46091343585299105,-1.4727392673286872,-1.459875095098246,-0.6169804590557055
-0.39147475958951555,0.9236421758761388,0.14442562217987925,0.38561404441039937,-0.2973211771633699,0.8423042668652011,0.5436031788938884,-2.0131963620986055
0.8032857267155428,1.7969169622592538,-0.8931014935218103,-1.3997909718254526,0.07748282800396053,-1.4663150554514885,-0.1781976608241128,0.4181082789888521
1.2006557669516942,-0.4099508432823492,1.2888045485347075,0.3359911072290288,-0.8814680455470647,0.956599213957377,-1.190625097982222,-0.21723094488893863
-1.2831825662044418,-1.5238432790820293,0.995940928522608,-0.3629578560710239,0.9505598433872524,0.830205901187353,-0.031076947150945455,0.5281468471677467
-0.5457073733546557,0.09993933070363709,0.24510622562913273,0.5519165243028448,-0.9869019949910167,0.00039403072623061153,-0.6515051320402727,0.6376797800315078
1.3199910880859558,-0.23286197843105252,-0.15612379934904477,0.9625279291659613,-0.48801761405179134,-0.6617550136998026,0.06873252285570464,-0.5279191946738702
-1.4342225249000429,-0.9679074410240556,-1.0563302204331422,-1.5762677649273396,-0.7270251584969789,-0.9219035469459261,-0.11720066720082915,-1.7282896036816782
-0.22719958589172584,0.7404513398547943,-0.5164354290594786,0.6533337337941992,-0.11468772015161503,0.41218099820512716,0.29401402874800914,0.024288312149718962
0.6958283578359501,-1.80105348318652,-0.0398943599502062,-1.4260278854885637,0.8672923497053763,-2.797034576329976,-0.29842472952046945,0.20381839094658977
-1.2285510341000612,-2.253684269627227,0.25398164041092636,0.5798483608679287,0.9565454505614107,0.4902235046377797,-1.0123393873535027,0.02041661272498026
-0.06942588929835912,-0.15243610012554573,-1.0266725260777703,0.5432799890948773,-1.4293296979103982,-0.5623220627933758,0.7368606521372332,-0.4659957687508545
0.35319132391219343,0.5132588598538339,-0.5094438593928275,-0.5121662556534315,-0.2777428227435548,-0.43951540505521064,0.3390020635092224,-0.5477028558362091
-0.7618018004637822,-0.9968803665073864,-0.3832846889318672,-0.6259383988594748,1.1734682519388175,0.7834770116759593,0.28185005048942996,1.6671738716401596
0.5176097299090201,0.09409879692965789,1.3218763447647388,-0.4574938196171098,-0.5412396584974887,-0.7998776233341087,-0.629193222009188,1.8402234426520594
0.3053649193453159,-1.4519083710338272,0.6856533827695779,-0.595932047069287,1.8841588159412452,1.18530663905727,0.04469394207294947,2.336118724712348
-1.3608925008841288,-0.24927303380550633,-1.2597827497016336,1.1661658374197428,-0.8463730303378769,-1.496915029522335,-0.283200884983083,-2.056781450651851
-0.9767324019895068,-0.37141246033114417,0.5750237490938787,-1.3972087902532595,-0.2663533582197193,-1.198664537490408,-1.3176103068539513,1.5809793910329601
0.7864356007926061,0.20363616819983832,0.7730111149590048,-0.04391866533410841,-1.790103517527324,0.2500245405922446,1.5167171733807794,-0.9531697323909458
-2.1417184320196734,1.2562799555323823,-1.034782977058262,-1.6579088302838139,-2.2363815184061164,-0.17223933531852617,0.11614419375483674,0.9024964296899846
-0.5895034074222464,-0.6701803634739513,1.4203155728201928,0.7252773217216382,2.8271463136215482,-1.1215657230708447,-0.8798136833340982,1.4061076636590073
-1.47530219790369,0.19036702245069786,1.7011684077847877,-0.5296312019848678,-0.09194791664275641,0.08675831917626468,-1.3747150667684238,2.2503610824536353
-1.5545649561623591,-0.3311091787929027,-2.2292891312683514,-1.0760736254541496,-1.8987271210966086,0.3148473409783994,0.2061837419510203,0.732234613383096
0.8409283612923502,-0.22893603641921462,-1.0978911122603148,-0.18196879639648922,-0.44291154068234034,0.41648929932804307,0.7818821881311401,0.190206094268198
0.6173613986790017,0.2519992609802588,0.15229258251355585,0.1405418844205356,0.007533198771498546,-0.07404031614992902,-0.4002901316839568,0.7193230585590685
-0.25737674972206415,-0.42037646843090126,0.5416895257136619,1.000265299575675,1.6528801426681745,0.13829569100040637,0.23693740505545308,0.9292180658448597
0.49758040981912116,-2.059970233590976,1.1885531445814765,-0.28881695138911606,-1.6215870784467545,-0.8537860288689746,-1.4589263584079102,-0.6402133088633912
-0.10165543771199508,1.3860221439355747,-0.04919633975450523,-0.0009334998578402027,-1.276253592405899,-2.4605552591021103,0.7329936806444384,-0.26410347561095343
-0.7905419653794715,1.4551356370487027,0.7767789536238403,-1.9744275992608469,0.9379670273084698,-0.9109872276372181,-0.5585668195891031,-2.7006412427948776
0.038207379955501504,0.6113381759527382,-0.1497234487365964,-0.9009586008418805,-0.09767475715427551,-0.012167379799947819,0.4796692941565741,-0.9747142569996139
-1.0627203087306127,-2.3006514286321487,-1.0164562397189165,-0.1337140865069186,0.2249325692783873,0.4596524404321618,0.6721166399769924,-0.3872957169872262
-0.6091987279310784,1.9070700313321756,0.22568351076736493,-0.6998180463645619,-0.3160880718470389,-0.3980626361641849,-1.8552946359211155,0.7124701655432203
0.833901029782577,-0.944628905278822,-0.502931600704989,1.7986318898820015,-1.258190389085016,0.8784536694431334,0.6027103853027933,-1.1753048640109702
-0.8039847513000239,-1.8182939601208097,-1.0935846104549756,0.6422809406382851,0.19633914581956105,0.5192897337960317,0.66542122343555,0.2934555487860843
0.09716440772953425,-0.09910576112552336,1.3270325774940441,-0.26550592732368056,0.1536051382851247,0.6963396643693995,-0.1222823266926296,1.6270542318809418
0.21695107121605509,-0.672328535173758,1.4875575283456268,0.016596718554153032,0.8644620943787074,1.6281406600183437,1.4799924625216005,-0.4579439162903489
0.8363519071969266,1.9886493770564457,0.52742211641628,-2.637503473765768,-0.14663209835863097,-1.3074847131310543,0.47330164349676085,0.4966725467002878
-1.1030199240615643,-0.13826106002775712,-0.30945161718136716,-0.6685020224400078,1.7855828264341957,-0.8367117613842615,2.073181944475786,0.8018070317058335
-0.7244979521960021,0.9815415542598055,-1.0927505385875698,0.2888074209355569,0.8053164231930044,-0.8603598598861953,-1.6745439530125121,0.4162443753055404
-0.06309746757638054,-0.9322978970657265,-0.2704449297003201,-1.639588081212416,1.684974630604752,-1.760126866905175,1.2256239040923087,0.21751824570471262
0.1960972254959032,-0.4173622869846739,-0.8825776514801682,-1.2870683773657536,1.6312078549163622,-2.0318396544711326,-0.8415421141937487,0.5406302194474016
-0.6612017869794418,-0.1786768039585822,-0.2049093768427031,2.026927900303625,0.75065742764562,0.0643029485014439,-0.6827927431480716,-0.24581495841677128
-0.6280812577237094,0.2542678401216771,-0.6992430329170346,2.606622624868037,0.6576562466459224,1.8418143249352563,0.6370457989657828,-0.340780796510484
-0.19566332138535872,1.6159341252181125,-0.5828673425456135,0.014085466635501835,0.41526139440195114,-0.7182802772595646,-1.930140076174713,1.7725037858200623
-0.044882819353797454,0.3346373887682223,-0.35048927450814643,0.2368107611736481,-1.1900870147718494,0.24414519560486753,1.5183541390317916,0.6903194265905037
-1.0995721005802919,-0.9351953985057971,2.151325728191811,1.023642012329695,-0.4359042930442834,0.2441612450162452,-0.45078080154972744,-0.35280851629721355
0.0798749720442081,-1.194146958800984,-1.044182773023731,0.4071070880952971,0.8386161638392755,-0.555699943707143,-2.2204065085968745,-0.22815560219121322
-0.12478075359134784,1.077104284514979,0.9371916193530054,-0.19302918108183909,0.5929518135606975,0.8195662674554678,0.6193822414427118,-0.287644422603932
0.1569201187741832,-0.4405792024137027,0.8290026259877842,1.3134622985737658,-0.7427859385653984,-0.4809236617092035,-0.14443959048558647,1.6115222284012949
1.9678647772227778,-1.1489992436568162,-0.8304721786769997,-0.363052522782416,-0.4823686374092754,1.22783954730658,0.8528738206593628,0.40945740820396886
0.8205318991522502,1.128522504605255,0.6898711580768793,-1.0551881826577922,0.540999280202877,-0.18316087522629695,1.5502183775392562,-1.0425428497123501
0.2752254002519862,-0.6654595330081939,0.11717289932003076,0.621266755117898,0.14607028120453147,-1.3005981425398663,-0.9684420650790653,-0.4777648411490659
0.7579572246093971,-0.6000614182018098,0.7455213038775035,-0.3787356986973039,-0.29098139789388083,0.22888152401468484,0.3906030036076168,-1.5335439921913439
-0.2276217044557719,2.1392831022584007,-1.8555974809909148,-0.5623692181743899,1.699496067210981,0.39570388541359386,-0.057909373938061524,-0.1600494990585523
-0.3865048667129678,-0.78107346006452,-0.9448038327768733,-0.8563662070914385,-0.4141104132232832,0.4392660284389513,-0.6021398713924623,0.644256826323674
-1.1757497688614686,-0.16332874807712672,0.1259014937294806,-0.3252896133120629,0.022721695787391187,-1.5733734549399485,1.1978806966838407,-0.17439747199478628
-0.1604365362586039,-0.5600375921736045,0.9753219283948004,1.6805386368709563,-0.7816953645023181,-0.5332402597674868,-0.621926860608806,0.6075076852405826
-0.04189593397110681,2.3511392657737353,-1.5730524176554566,0.18619935531454415,-1.0764557189750095,-0.3411866543927119,1.180878526150086,-1.3058406808155223
-0.38359887038358836,0.8834811894291079,0.23797303036295883,-1.5044485979359308,-0.7598156899691125,0.6609461252921316,2.237495961376525,-0.220768541422197
0.10549231606239586,0.4615641770747459,-0.5072292802113382,0.5986238500179838,-0.43542869285763375,1.0708235272248292,-1.2173894985860823,1.3987277851045725
-0.9273690458315117,0.3711752552711111,0.012334011790791136,0.17774474637058132,-1.5014752963414404,-0.8012832623235424,1.6856994885236731,-0.6306970421588407
0.28297294565659903,0.2352485175569623,-0.8918525898899156,1.0425954052869664,0.7216964978456688,0.10447993177503961,-0.5310985260338272,-0.17142913067659593
0.3592855683780397,-1.9712331221242478,0.028339624329042898,-1.0915898781616489,0.054284968401651486,0.04022546880443475,0.3970383130209859,-0.4365972042437014
-0.3354062252737695,-1.2603659295071252,0.6920609001646141,-0.38034130816783235,-0.6801895665330733,0.31874822865971514,-1.6772842537868236,0.07486833420562493
0.3429878319957531,0.5406499948137427,0.551501582457734,1.634656123184622,0.6643260562003935,2.170969252452688,0.6761329394341137,-0.798281584684398
0.8382850393112006,1.4642548772696717,1.5324469497796824,0.45382231396848777,0.5133028411262476,0.8305126281969272,0.2931213169589933,-1.2008345968805405
-0.8867910168420091,1.4050646370686257,-0.4824239479216711,0.4866523269411173,-1.4983163858846296,1.7427215425017586,0.7429673528116723,1.7075709065203053
1.873431252703402,-0.8216063980659071,1.913226231916413,-1.0448586874685641,0.11483885967662034,-1.0961026349040255,1.165595704307341,-0.5212318405381748
0.790602502210655,0.41562125449043347,-0.16703230634741126,0.9686617252448941,0.34096659739479623,-0.7597364609067145,-0.4093321032869322,-1.0879260383340068
0.5589053254628968,0.9644440468524192,0.2775010573982585,-0.9638568471610872,1.3976075280094649,-0.9320115510010144,0.3984758715914576,-0.18786435314361544
0.8096192687497553,1.7226166547053927,0.5236404825853429,-0.8816421054552444,0.4038596366917128,1.016962443094841,-1.761444440391549,-1.657765115083217
0.6466206632212539,-1.188963239085397,-0.5513149166769098,-0.08936392473495688,0.11907883563028483,-0.39988831361859145,0.0005808781415542467,0.0951015643467941
1.06419623683174,2.6610292976629317,0.6889592339748389,-0.2992410169382781,-0.3994041381363953,-0.059321969139711106,-0.29739568392509774,0.020320774534949286
0.5459854853858749,0.9995873074745635,0.05634034568157291,0.14866132713260738,0.36820730028094345,-0.5667422011423436,-0.363838207556453,-0.5114532653308785
1.1520786733133954,0.05109737990141595,0.9957077721707962,0.5312400496286188,0.10256755645210991,-0.968982315778579,-0.1325069636786262,0.533991068635476
0.36309273729492114,-1.0660075227819439,-0.9872124153904239,0.4254775600786982,1.6381060127128144,0.7203646466643105,-1.173603110555885,1.3236497721207559
-0.15559694628692491,-0.9164624145950748,-1.2122614741034392,0.5142543600031024,-0.3752447533809719,-1.037415078749049,2.2878694092294984,-0.4646453634952847
2.3351113896160354,1.8941769916927205,1.153702791811906,1.4777265420567671,-0.4205365518364399,-0.8393840003815909,1.0611317963435931,-1.5607615173741296
-0.1964881898234626,0.5156138866514342,-0.1707017276515808,-1.1988204461345688,-0.1136835749444579,-0.2929500001341168,-0.3628803402269526,1.133664905661056
-0.12166257266075862,1.570688382402404,0.6203343313869051,-0.3696826474513783,1.071114071241309,-2.092709658776187,-1.3592554169866224,-0.26380722763760917
0.3452256266992212,-2.0487507358844175,-0.5385292133450901,-0.23177480924609517,0.13511671514580634,1.8273724755651155,-1.2607903085498344,1.3039465395036258
-0.7022477754019701,0.7767427771855464,1.2809991451275964,-0.7831858230279923,-0.40957095986680175,-0.7297485558898137,1.4200809289892238,0.8234758088180155
0.2333133921494322,1.3037541319588408,-0.15920093959895196,-1.48342781442501,0.38779648317875876,0.7480247946015576,0.8325996939426252,-1.1497617001012868
-0.23575089141664413,-0.10066480593411788,0.5113674760979914,0.08397290683961126,-0.6681724283475186,-0.2593187222901462,-1.4972982692138213,-1.1726802445171614
0.08639057563483118,-0.8475558565255467,2.211864396099016,-0.43647778297589596,-1.4197164373661764,-0.7667777405811284,0.5634604022306147,0.6526549694269871
1.0874866307195683,-1.48662536345238,-1.5607792162373604,-0.016194292522254107,0.706892099989782,-0.4151856288941305,0.2755475006273097,0.8297646501277838
2.0959780111655952,-1.5604451485636723,0.6237658848033338,-0.6510784586222423,-1.6276039347311944,0.6216368179694212,-0.42571015867426054,1.5766646771505173
1.1089959039096873,1.2532489450069004,-2.3455907865744137,-1.821784066683153,0.01979686608463126,0.49193978540547323,-2.02356276486867,0.2293190773372652
0.87355959674241,-0.45964437223537247,-1.3014726417085982,-1.0278645354882032,1.742154982178479,-0.4907741448746395,0.8787908104542331,-1.17764840047722
-0.30660340897504945,1.2044121342169354,1.1079683785125498,0.45750634811399055,-0.17708826952803727,0.11301502606536273,-0.7977241137474519,-1.3783203724841835
-0.764236732766802,-0.9453493762212848,-1.8304216705817522,-1.4485857426572333,-0.3754215635442147,-0.1401052050597374,-1.7693247397265692,-1.3330133110018576
-1.1400491141947893,0.10033332213747581,0.12398262018512311,0.851895479214473,0.9694141781770895,1.2186123982744126,0.5586035019497061,1.5567194966737137
-1.1237241739124886,-0.8933926301594188,1.0010297753687085,1.2515586294304795,0.9535716616590372,0.3308998398661464,-1.3213908471086664,0.5607943629595203
1.0536896234951694,0.4117076801681704,0.6798150269398058,-0.7849838982755908,-0.7497147554838367,-0.42711796131379254,-0.5752611900912808,-0.9676781742098814
-1.3420053865251171,-1.233281866890321,-0.12574607884058958,1.6760194072629562,-0.760966669730456,-0.013290289015088004,-0.4124447990250148,2.2407236984511525
1.262453317182676,-1.05358479646827,1.245118317927423,0.4936145955330881,1.1888689509057224,-0.3690975031861597,-0.1986711186893414,-0.4815661796275073
0.269770198222006,-0.1299637136352497,0.76056446465515,-0.7247756309365113,-0.17743142102120965,-0.3836759526448174,0.989275703635217,0.08496480702627597
-1.3122633933507784,0.7484153289849771,-1.5502296759995093,0.2400056800397336,0.4628081229941025,1.5366578808754718,0.2623820356986902,-0.09303540371133179
1.4598695415971155,-0.2293333700242664,1.1006458179389202,1.2683911149755889,1.3939044140081898,-1.564906073981476,0.5933747026640513,-1.2227721167382
-0.1464003693384807,0.6194057906310546,-0.9199808150468627,0.8206671266410418,-0.7586364602244302,0.17465645810942004,-0.5498109156269412,-1.1679696595348616
1.4902316070808517,-0.4411478855453581,-1.4148041439228012,0.7925938132579213,-0.256825484514831,-1.40735602294985,-0.7360781896267738,0.9706834499233833
1.6708054440027849,0.2788788467139265,0.67320613456561,-2.265796656216385,1.08523624154572,-0.37050028478410474,-0.494221788027058,1.4392803735406603
-2.0376023962796617,0.1280694947733677,-0.748382506857321,0.8319059670403772,1.1987465004124045,0.33784219022746237,-0.6418812114045221,-2.28214880606054
-1.760286795717392,2.3046147738119616,0.2365532104854205,1.0699947925679236,1.0913272316156704,-1.086419597438078,1.1063255013575373,1.3770605086354746
-1.20941094759495,-1.0543238559284283,-0.10177704596663226,-1.2263342371380035,1.1798906688739164,0.23663578951996725,1.3285275274403796,0.02644733590361375
0.7483943676307123,0.6643797412452599,-1.4706230447540563,-0.22097239059360785,-0.08375454914220995,-0.10616623313368258,-0.7221064836216304,0.46959932165060553
0.11371045576186845,-0.6524734451049522,-0.3095043120415486,1.0091571522846556,-0.3042272358563449,-0.5413071262214244,-1.1556851488698252,0.35914308894695285
0.5951125296771164,0.8474314516151602,0.6863776970465054,0.5403627107749717,-0.4151549288058052,1.2640531310835132,-1.5411014749523084,-0.26759810773255127
1.6740903531335536,-1.3890693610901677,-0.8965083301357891,0.2772498965162756,-1.0518196157464212,-0.7392972262642828,0.19898402596138937,-1.3217867654464015
-0.5690359956578619,0.40235597927123107,-0.37144138412952965,2.7191159683939463,0.7370060441173175,0.49036849528865356,-0.13370290730218792,-1.4909755058378449
-0.8526599898251129,0.4338078872050241,0.1035434467596939,-2.99442726402899,1.2354502059281138,-2.26260979129916,0.30338200117902575,-0.2812921422227153
-0.04256558972886413,-0.006130099163030051,0.14574408584103998,-0.09083432865776075,2.9068641246538194,0.26010929081457773,-1.899804825405577,-1.2163851813708253
0.01863600376356392,1.6873433940574607,-0.7603981170430855,0.2535387680637686,0.9436025864955444,-0.03251273717575834,0.5115995010923376,-0.23090986761104332
-1.0510651018149741,0.27264522771167443,0.37858250032610796,-0.9062711570488983,1.2371265004706304,-0.11503152470154004,0.44856230669391506,0.042341812402951026
-0.12011510202359446,-0.3718572841591632,-1.2116478514302027,-1.4203747615337619,-0.7778121652853998,-0.3682228605613918,0.6864570849731518,-1.0831882779856465
-0.3039930459237526,0.5416876031111494,0.05223441679216762,-0.9996722335084832,0.176079918428674,0.20312831527667233,-0.7292707354856327,-0.6008343822608023
-1.7398701810016142,-0.15592938419242247,-0.40981033868059885,0.25322609678839514,-1.6152347017059279,-0.23155153017071178,-0.5411530294217786,-0.9012653273541279
-1.126600071340234,-0.6297301367189733,-0.423120495448675,0.4704271776942901,-0.9505965080050744,-0.24019430580681383,0.3633228226648194,0.11908524950173531
0.8589339085607096,-0.9118626095313788,1.6107236500934266,0.43423769699109915,1.0113701489536413,0.36890578423006437,-0.8263271441860617,-1.2487211671707106
1.4657879920260697,1.269559292619066,1.0314144330647737,1.170184782921949,-2.3724797974962306,-0.4930918587003784,-0.0067303328263305035,-1.0059156102713656
1.550752356401532,-1.0422487520097563,0.7396899077383104,-0.7332633585999446,-1.0532860497669885,-1.1677299947634552,-0.8386297527695188,-0.8181970879736935
1.3610117983367216,-0.39212951576406957,0.35440845183124925,-1.0316546820109223,-1.3887406768771569,0.9603802788222806,0.8512241812676328,0.0458830541089108
-0.37039105033868797,0.4057499133707841,-0.36050848635833765,-1.2479920515136704,0.7396105905261072,-0.4068492648685254,0.5550045471893196,-0.5961132302709604
1.1099064781823216,-0.1267548036051471,-0.5707257685761506,-0.23415041349155213,-0.8824723724685772,0.44567200722745703,-0.9679229221553974,1.4185905388868156
0.022633632110012288,0.8936509709320161,0.3900458972784889,0.6778156112406236,-0.9770673315706846,-1.146600208521635,-1.1279720923842012,-2.229147865678727
-0.6281914103888678,0.4965895520256374,-0.4666734298399647,-1.7328112118806396,0.7886454111974426,-0.05019827997600661,1.4033634400696653,-1.472830299339594
-0.018153901267622792,0.5733440737972966,-0.03272769112949058,0.06414071042862418,-0.3757959208728302,-0.21412525069426222,1.1949122095483684,0.15662076469946612
-0.6596306102511329,-0.04599954980002171,0.7185124206449467,-0.618730656247359,-1.6804832714909412,-0.3439554139517096,0.5640002531285063,-0.7935374752763846
-0.8334264519483036,1.0547386558212415,-0.2554523711459811,0.8032430942301055,1.2035997591405112,0.08953482380027801,1.554929798804382,-0.2596201329501686
0.26102448468417594,0.32398267307570866,1.548907646967086,-0.23772873155246818,1.1155924204739707,0.47210865524256546,0.5350033247689294,0.4770489682503699
-0.5046132063162335,0.6852713034963482,-0.6022944012442504,-1.0502300637026196,-0.5749059665790499,-0.22306998691444618,-2.006952579559894,0.5704342216941318
0.595476377247256,1.4780208454148887,-0.6553162859872224,0.9556339754553289,-1.5436412254090495,1.1922577709546303,2.3658800774729083,-1.09074736474718
-1.7704010851668466,-1.0124277726201427,1.3428337412281388,-0.3621361052968683,2.164235780232102,-1.5846464798243478,-0.734444576445906,0.9327062280667001
-0.7366520530829753,0.7344502625145136,0.5095151623964737,0.44996034788603095,-0.28809867822785856,-0.8627690793423243,-0.49678302726465096,1.627476436820803
0.27970470093311195,0.7179563621826249,-0.6549374513219144,1.1903439736828147,2.470917076232178,2.6008833776209537,-1.70381829695419,-0.5754552988211407
1.7700743819695606,0.2236517073029949,0.30948373134503804,-0.5841499573760028,-0.183767337485955,0.8812697330186651,0.33078955606244004,0.5266440716515306
0.05563888800199681,1.944726807987706,0.9077837601193959,0.5995157191169564,0.45077204580281405,-0.5304990696573714,0.38916037865686776,-0.49943351522798074
0.7387504344544665,-0.40534263318609287,-0.5760079743418267,1.3328903780566401,0.36960165063219486,0.928286408450237,-1.2835929036726574,0.43900980392705813
-1.365935990450916,1.434569021027688,0.36539997023074566,-1.4684543401863568,-0.8910555403467799,0.9996186957734879,0.826317273266692,-1.037737957089103
0.9410580196973817,-0.46035628899882225,0.5109326682637849,-0.6341453505503657,-0.19552814375744698,-0.9204495032933147,-0.6763367103030304,2.501293835446198
-1.4890107437492366,-1.4281983682691277,0.5765963330639773,-0.27185103381804704,0.15979217134838933,0.14662456880582814,0.6750217813583822,0.021128269148291107
0.8932433470974691,-1.107801038941743,1.8385824998947236,1.0442267864332326,-0.7880789924345958,0.21921248481953803,-0.4044511506000632,0.6569506790767996
0.19398346810764522,1.4703345738446112,-0.7500977133947592,0.1164084378506303,-1.1577309798658038,-0.2461468139100633,1.6857599302053168,-0.6621413437257002
1.0927264056618013,-0.7501340488273215,-0.3775937164315742,0.2935322834239824,0.35116623210738174,-0.6428273193951569,2.1697172911121494,-1.364788671554196
-0.5755811233408532,0.6109254899385258,1.6324364170966972,1.0092355938951503,0.3199104303457773,-1.5181704602867903,-0.16466088280681246,-1.0851187538020497
-1.6596817731365119,0.8809839194151579,-0.5575198088475299,0.3969562338652669,0.4738406183824723,-2.106365181304528,-1.1325258636836693,-0.4743773131180769
-0.22656289739001997,1.0287584054238654,-0.21101448288305039,1.2487223091809925,-0.8049939473958515,1.2177437453855866,1.1584115429542028,-0.8956196857470797
-0.2938200698829616,-0.1860254146559206,-0.7705509215016495,0.7886164711010374,-0.13287846373306428,-0.42142004871677663,0.2686338853752046,-0.7082415192611615
-0.06220535525615316,-0.8811194012242716,1.1700182754856119,1.0993686248353887,-0.17196223763862187,0.5234414162068666,1.8134116180511535,-1.4661799428489637
0.052671358757200075,-0.5200472575193062,-0.3525688980524892,-1.5498372171567236,0.9191739802798206,0.7082200266086724,0.9771696485929975,-0.22440530097712355
-0.9325373677841438,-1.3768492012761921,0.5352695802963512,2.5268110457078476,1.666681141208815,-0.3562631270084182,1.3034089122837638,-0.10010294957510431
-1.4643127107887584,1.1060484703283322,0.6604112798016397,-1.6666248782698512,0.2469658630444267,1.6428590180976663,-0.31915417976915683,-1.5058171490634216
-1.4732606709957001,0.6621385826856957,-1.9363818269232909,0.13357361988052482,0.027937948368587324,0.024877439453868146,1.624834653921626,1.390342097625949
0.6671813099038848,-0.021246847915996202,0.9104999284135299,-0.4651435196074288,-0.2741140543502686,-0.2305543373775354,1.7429618682731645,-0.575068052437613
1.2637115791605587,-0.5790719259589237,0.060561052474078635,0.7576702520275169,0.22873051152442495,0.37706148256743716,-0.28555264672611413,0.853139029865664
0.2302956726604434,-0.458204316735424,0.6359956403508972,-0.4103803119511819,-1.8927181977762524,0.5664527971405523,0.08744006728945174,1.971192221894401
0.5922974773393304,0.02501575304571852,-0.5266130853752315,0.3425224663126736,0.6144719781220684,0.3624289246360834,-0.3841670738636581,0.8624058443764164
-0.6581306936096658,-3.0627324144145494,2.365623202459318,-1.6195688579485557,0.5859869506328467,-0.16083363951964283,-2.149905696205668,0.18906770862405903
0.10815062351725221,0.1759286656882751,-0.42273254890538603,-2.591706020598795,-0.7182441928942793,-0.3682581905071967,0.6447606632245265,1.549203808774693
-0.24161327132425467,0.4962316313934872,-0.10912776423884181,-0.7706994877987824,0.17194429389468396,1.0867485847760423,-0.5679375427809609,0.1570848183122081
0.5228950373824155,1.3750573239107617,-0.0828319472672949,0.027418320448065598,-0.21631982241209477,0.3167718652852003,0.19996055137984212,1.920556459168668
2.3110292461833644,-0.5447303364597332,0.27144064046473976,-0.19591624806992344,-0.15101790020276648,0.5447811090999141,-0.1313289641860605,0.7436351736102248
-1.010054670721889,0.00861861531587189,1.1640271335817736,0.7494003981059865,-0.4946903382166322,0.1587023393942571,-0.09443208110690934,-0.8311710124214287
-1.307467741176828,1.3287978060096257,-0.45993178853700223,-0.7139557440215489,-0.7274206433583176,-0.9533050965964156,-0.5686711697968444,-0.34309704946508385
0.33660118668981487,-0.6335954009064698,-1.744520395989377,0.33071030584790706,-0.5651800249969771,1.6180853950508285,-0.3613552213355356,2.072500091677802
0.1725166593485993,-0.327474904420061,-0.5819399852320518,1.279815768458571,-1.7293048754692808,0.3704964891131863,0.14284087484250765,0.15153700957379737
0.43860624379502305,-0.6351878217806333,0.08817858040042818,-1.068976625050579,-0.9456765744715743,0.239981405871445,0.30526480725759175,0.290564280009467
-0.8544566156399194,-0.7761542271374293,-0.8492896085926048,-0.5088358511343088,-1.027254314684369,-0.5123821769992026,0.6571700639804295,-0.40871580958466325
1.4227688894513724,-0.5736277136146491,-0.08091587649298339,-1.1487436602769996,0.6311326607087591,-0.8886021893378647,0.12761039643197314,-1.0684836622638003
-0.5664763510494867,0.7360055749065916,-0.08620266967794432,-0.7617642128228109,0.584546147532877,-2.0749194318147475,-0.2509237273129451,-0.3975206196868712
-1.4210506840143227,-0.5098914917574657,0.7204597642034856,-1.795388908795388,1.32853470154097,-1.1884253853607747,-0.5214899273268743,0.6659248644819008
1.3151048691773608,1.3101396186343999,-0.5528164734858488,-0.9415883025864815,-0.3257602216300942,-1.2241443028843004,0.12772804159786172,-0.46536652969481096
-0.1382716973613221,-1.6585923482429152,1.3338129104488186,0.35460302819119405,-0.06534268845761211,0.7454766247995276,0.5582970406042637,1.0947922506517749
-1.2244181579480644,-0.9637951080261761,-0.1461211317127546,-0.693005432433487,-0.9871364161492154,0.03867929622057615,-1.4152940637448164,-0.0017827678147375695
1.253219214962602,-0.6181505603338834,-2.274897253925982,-0.23229165229274193,1.132166426084813,0.7119018098415386,-1.9867060431771522,-0.41426870864649057
0.10784809724254267,-0.7813196280242778,-0.326400483318302,0.911633559435524,0.5442222164606942,-1.1534439930274643,0.7024352577594088,-0.813194271866551
-0.7032002849474825,0.5931969660218795,-1.1904264596700396,1.2576179277639787,-0.53788143377511,0.11454307206947388,0.3787561046234013,-0.3279850606024406
0.7867846945416073,0.9281278312998562,0.8046452353912754,0.6834111334560017,-0.6181741614993206,0.6018339226923005,0.5093314549714838,-1.0530772770106185
0.5805121241786574,-1.1084216400052789,0.3944361956083921,-0.604690684671611,-0.7990708393240622,1.2094784391336955,-0.26837238818526254,0.09892309134158545
-0.011034753684264998,-0.00653521264315421,-0.9680023470990795,-1.877898174117052,1.1695740199525015,-1.7162855150410168,1.4767262759861444,1.1085340842934552
-0.6607565616054888,0.7921391643379883,0.15999498521078195,0.2949897098151425,-0.6524012540202498,2.182407533825507,0.46073577463106064,1.8414387534773655
-1.135068528199447,0.24301381867759006,1.2773105547754087,0.7875095985075885,-1.6529274320522824,1.8675049853155263,-2.013973364949068,0.4517025832800691
-1.3944604988380584,-0.36366237262207546,0.9336792013046047,-0.14637752907721807,-0.33911015873319894,0.5789558568705175,-1.345232279814107,-0.5598794073364324
1.8179300136128247,-1.0318325456425226,0.15732672623873376,-0.5507983199102818,0.3105553192495307,1.3190830784939023,-1.460293059905545,0.016101432187574254
-0.430953235423628,0.7687959515583833,-0.3617997741741119,0.6612578880034469,0.8039462710644529,0.036543742667682136,-1.7285840426119232,-0.06137542812763147
0.5988868698933134,0.034283323412902744,0.3413840225170196,0.2597155675796598,1.1018738963421373,-2.1154251065217853,-1.7856713502678023,-0.27816737803333813
-2.149511374490453,-0.8177641287989361,0.38584782192250244,1.1034685818670702,-0.8838275385024407,-0.18042546344660967,-1.4196456953032102,1.6143220290156546
1.0724206784084596,-2.7081923440631988,0.503379566060268,-0.5013792444498113,-0.7292791575145149,-1.3367276066431955,0.2896635557648015,0.4707000993926406
0.46531319920440317,0.03811144542835861,0.2874313533308893,-1.130843067732923,0.6597273694239728,-0.35272792981724593,-0.002707326706260657,-1.3295320590370658
-1.4405193937189456,-2.1794964566407216,0.18599147712619118,-1.7981917342860498,-0.13020656512804743,-0.7534088049013534,0.5144199708167747,-0.19304252467895391
0.7287246956415687,-0.16006446676158084,0.077804575805044,2.5338372314507325,-0.17802731358835547,0.44836303998722654,-0.521160711295225,-0.3050145737783767
2.4866514177441634,-0.4993051364193467,0.7498494115245181,0.6525352563775104,-1.3174924787833109,-1.5764716902789406,-1.1556703064583025,-1.0294937495019845
-0.5375891891452227,-1.2062015648664672,0.5772564047576114,1.47942744912495,-1.0202128781691098,1.356854861306902,0.48817433141864214,-1.0150955521064355
0.2797295062599076,-0.0756736018321486,2.2191419324096633,0.35642882584147983,0.9358387525651766,0.9619713322158605,0.5116846754400319,1.0616842906092887
-0.05151000053520386,0.5698572470534079,1.0501947673224001,0.04095670010436239,-1.4061587112917056,-1.641412739100692,-0.08572900225173594,0.4748295324280148
-0.9789514868313361,-0.20091380527733307,-0.8623806662706957,0.5364654862564555,0.4353712568169063,0.8970452853753108,1.056606177366017,-1.1217230891261398
2.6159792075295454,-0.3132922557483179,-1.3402146284651075,1.615052927449857,0.8302122630924021,-0.15154288948409986,1.6184525450642944,2.097101309604221
0.47152679541285425,-0.42045143390550543,-0.12952147758795388,-0.3740515484315276,1.8792018813646287,0.4667973334140038,1.8754211113653596,0.2911472526742779
0.8851963449887147,0.6461354068326289,-1.7267250226787008,0.8175614696322503,-1.892017500194362,-0.7814220508675918,0.8955631293044016,-0.5516810511288495
-0.5085651155655586,0.5524697828483889,-0.6767383326242403,0.4727198991673764,-0.17592707403504884,0.9108258069203963,0.6997237866239071,0.12478746010003841
2.0292376830353285,-0.24959468430748932,0.48552146088206954,0.5088460865358768,0.35265499970266595,-0.9651933289334153,0.2866039817580542,-0.7576852505958406
-1.504098604445577,0.19583197392386914,0.6705437250706945,1.2599145718799174,1.060430845566636,0.40799499703764097,-0.3095908225636906,1.904560727224475
-1.2788214267507114,-0.39555847233473784,-0.0320185967177159,-0.14200533717533775,-1.988015300957087,1.4273809284431984,-0.2628374707556836,-0.16647629380263335
1.3298066140600222,0.3944598932360514,-0.01498784589827382,-0.987960042183291,0.3668487513308323,1.4978170162553612,-0.8177149456320066,0.4352775245818074
-0.3987071275143065,0.07323499993466506,0.3179641361878503,0.5271687483143033,0.2435597097679628,-0.21567804746369956,1.6548063413289569,0.20257098652365726
-0.1494709271006837,0.5799104431545846,-0.7082952433546496,-1.0155019308101843,-2.0181560480050793,0.827454926146218,1.371447575566377,0.3603515429506619
1.241956423211526,0.7429688810685962,-0.34772123226211077,-0.6524303762171153,0.8279897344821663,-2.0470828370762457,-0.5219946769270476,-0.6062107823122106
0.7406624364629172,0.738810818842898,-2.05506213290561,0.7913321754310142,-0.024398557461942458,0.4483915254348076,-0.660477438308679,-0.05409649575299809
0.6444371607003232,0.8995145536831479,0.05429234640223786,0.6544316954463425,-0.5453232945121217,-1.309544095876236,0.6023826517543323,-2.3200183757785005
0.15976034876683223,-0.8706549656273346,1.0919335388500082,-1.4990214615604316,-0.46971405386392917,-0.23579805089804068,0.5485942816383487,-0.7827001755919714
-0.30483242254512694,0.6763076620852224,-0.038595565945288436,0.7132423128884283,1.4224614759813072,0.5337331753994172,0.15454433151366828,-0.14368129732936377
0.601575589297627,-1.4848835820635375,1.7912870095257294,-0.6104980991752993,-1.1423800732431746,-0.3334821151587078,-0.5760553852888789,-0.0666245280555544
0.14703158220505255,0.5873560572864065,0.43010171383199597,-0.2891466504770629,-2.6968534329034606,-1.5173847464858605,1.4666943635394432,0.20045168082439416
-0.6609394668367535,1.372291233587012,0.5521404306328012,-0.08457515273796248,0.5330845107290726,-0.5362824337055773,-0.48258770382843186,0.3058005506809802
-0.24675524205452,1.2473951333766105,-0.9891689051137719,0.03823639447055568,-0.3855242806882542,0.7516189796906722,-0.9407217153860814,0.9619468147424309
-1.3197457454311137,1.4390203225261637,1.3677817307201765,-0.68220942684913,-2.2101481207254596,-0.6229960460782239,-0.16618444535174964,1.1456117339292848
