-0.5786003754346732,-0.22529183829151123,-1.5620114522360966,-0.8546209277849939,-0.5318908183382624,0.4418223257240482,-0.383318870699508,0.7075256229703658
0.9856931339525524,0.21037695289582273,-0.3794867607393956,0.053003874111060216,0.8460765631353058,0.28380021230161967,-0.37737034978143397,0.06578694019311553
-2.392434257853662,-0.11544344657296357,0.767712052651467,0.5414329794241317,-0.11777717148379824,-0.2866608494375351,-0.3023103578904336,-0.5115243396677032
-1.192152085954384,-0.6070505280562793,-0.5959496054688505,-1.4784364348851269,0.12100897445080937,-0.22711589989535483,0.4000267774456469,0.38613525738425325
-0.35887370664498425,0.7004608826288792,0.7080200440830005,-1.502080098375133,-1.3766476697834933,-0.6785378880794521,0.14443581627232246,-0.46166702167088863
-0.1304657105222965,-1.6701602645184717,-0.4376112994912538,0.46413464669806975,-1.3301783660066384,0.5514812688216808,-1.1090674008675658,-0.8446953896872015
0.16688360531256752,-0.06779716668239451,0.8983922248121468,1.1579016419932555,-0.6524095985614046,0.9772659771824658,1.354026868773127,0.9224129426920443
0.9174438622351104,-0.9586823905457738,-0.4549859851811399,-0.21473114402761792,-0.13078869944800223,0.9382762728452355,-0.17258173795966283,-0.7073121032188957
0.5905762968269249,0.7370059562465124,1.1345815212381436,0.8708320240286008,-1.0009039909356008,-0.32715069623179815,0.2446207296385917,-0.8777544469416173
-0.5089108971224628,1.4959851087526703,-0.40818962811684123,0.6869079723722196,-0.4609187742486499,0.050957041024181506,-1.403017112394538,0.020129035490371334
-0.48075366729315133,1.560338346113795,0.9696994638525002,0.19188625956851427,0.9460633019005846,0.04680248150417508,0.26226204044149043,-0.7896543499243193
-1.0359004498418334,-0.3052953550676572,-1.717486768496791,0.21112052627428876,0.1290997461148815,-0.015702423614668455,0.10344713814556308,0.3958429377816389
0.1664884745920513,0.0373297775130803,0.6743268172877097,-0.31040712049147895,1.4283346753557935,-1.3266021044738054,0.476066699232788,-1.1071945631715177
-1.4777297578730246,0.5799582279926482,0.682451702003272,-0.27584372555286524,-0.10760205020345268,-0.08207737598675863,1.494876240259162,1.3935259625783216
0.008620141021690453,-0.9572388296232246,0.4916442525681607,0.496727588871488,-1.1775038495170387,-1.1732547906387292,-0.580917944144233,0.11418587111643187
-0.7561151335002828,0.9308938207756573,1.223481653161377,1.6095328134096345,-0.35566050087642864,-0.4978929787171736,0.8311973145738026,-0.09846443172933435
-0.6514743161327173,-0.7281955242112851,0.4077535767285614,0.24220537948182466,-0.9104807258241201,-2.2572258615019547,0.14487205712132498,-0.3435552099157134
1.77036276916115,-1.1524112717487769,-0.8373474090271363,0.3585976138027218,-1.867204515328691,-0.8312015704559657,-0.8137305780208712,-0.10885105491556449
-0.4160492545674452,0.11631181416466567,0.6518348817247488,1.5072117228395085,0.9011221433200256,0.0920867123700578,-0.2296642086772655,-1.3690938848845684
0.4996467391912343,-2.0837724456944304,0.39799678601033217,0.26391385952581814,0.4503170547844548,-1.4239644765851869,0.500739981141107,-0.9418641911675399
0.2590496987700902,0.2814582702875202,0.9802657532087813,-0.7679178405114848,-0.30333332006596786,-0.3583495759672722,0.6067755192922633,0.9043084489049177
-0.31092383701665166,-0.4170456287335462,-1.2732964095818318,-0.6794404233826866,-2.55466658291004,0.47308820646131,-1.8898602322186424,-0.015086276412221251
-1.4626848853692944,-1.0348371349251952,1.1584598456544062,-1.1214205154965895,0.2515768099748141,1.8151474602452755,0.5505708917866577,1.0682362029714363
0.0015443372657642025,-0.2966826772552997,-0.8726139676583686,-0.09180821376427957,0.13499010523708824,-0.15136199406819575,-0.7397663787203554,-0.15057370005745147
-0.839543579415982,-0.3606838817688844,0.8743299057203053,-0.3746601358510834,-0.7804130577789983,1.232423594309826,-1.5947357533709445,0.10011891480054126
2.4927612145880484,0.4190114931238902,-0.6722673475838284,0.39327938598716766,-0.25821514539216184,0.7101130675576453,0.6793020893295997,-0.02869156309022543
0.6239768138153613,-0.5741032736218712,1.2047997516116435,1.2250714941470664,2.4886175450120174,0.9647633167283682,-0.034495905515459356,0.6847734827569358
-1.455657594368779,0.4649340684665293,0.2750508365267259,0.30632151172082983,0.8196746327130946,0.8270248293820281,-0.8203703605738263,-0.024648725104208156
-0.6472333151835409,1.2079704881543538,0.06215506732337246,0.40272970616029014,1.713629074612476,0.32529405480248164,-0.8495993845662438,0.7609211394873863
-1.502811858183291,-0.634467560528073,-0.4960421640588734,0.09761651616592318,0.757629424349986,-0.022544973991928657,0.3794120049101415,0.11180202781265806
-2.1951851058513197,-0.7580041354110809,0.5909556492705236,-0.8833363937804309,1.977888427379025,-0.1465162947897017,-1.0082135810966286,0.4553034333568754
-1.0988555698679432,0.4810212986805261,0.4303574748177853,-0.1110355871367554,-0.5705613778792701,1.635885003402916,-0.06392809676932536,-0.2607061618707029
0.25758657629594334,0.8304488737420544,-0.9499801722842067,-0.8934788965639043,1.2507668849958338,-1.0950890175075616,0.5295730145103685,-1.6552553972379282
0.1805265906668591,0.10455948239201497,0.6148822475961802,0.4780481066249596,-0.11989478471854607,0.9021309744157732,-0.5369985214352359,1.757043819868053
0.34883421803520365,0.5781703784819167,1.1418174670197556,0.5519477411264377,-1.2472422090397863,0.2234082263702718,-1.9109545167447675,2.1003971470163614
-1.6615958801685446,-1.2108922118975702,-0.763966630339903,-1.0885567781685686,0.1494212570454416,-1.4857660667125316,1.4295893893117768,1.0255811570177797
-1.955492298785114,-0.5800062076934555,-1.9459068111846125,-0.39032789687161257,-3.1373233141569212,0.9981837128549507,0.38071838075788916,-1.661719406021789
-0.8077218444381148,-0.2729090630963313,1.2016953506412644,0.015144179235351295,-0.725567379951109,-0.5387203446804724,1.0675628336720437,1.6460490934009597
0.7363230039727813,-1.6785391145168225,-1.1074100747544002,1.293593174676561,1.6192113446061118,0.6708909277934182,1.9041651375095021,0.41709248267563803
-0.490216845539053,-0.7165711007442807,-1.8296349160062646,-0.2665704631515345,1.5910597475125525,-1.34828908242916,-0.5342322880567145,0.5954986976132017
-0.7564114272484406,-0.5417314161809673,0.7619794768672182,1.2177049714693997,2.435118594884997,-0.091523389728285,1.5118825069123565,0.6242561364085365
-1.0390148969041308,1.3569715621894318,-1.72692078030563,-1.353179100920123,0.3335011485256586,0.3962520321390525,0.00740282399355076,1.0535629982937316
-2.698333992522839,1.1855346984393367,0.35534019197557754,0.3809999521256488,-1.7522319887823599,1.2460584782930655,-1.438072648322876,0.9736949994629991
0.22793173385242457,0.38765849917800316,1.0293495256783096,-0.25990694813823395,0.33904565903013684,-0.4697956558567789,1.3435697888767657,-0.5894374471668383
1.1965238334376889,-1.537533655485608,2.312167138326019,-2.239070444606139,2.459045741357946,0.20193607144667863,0.5422785252697527,0.6478934976896797
-1.4645322032394228,0.1660714554297609,-0.11342121075895387,-1.1941671856438638,-1.0046514792419303,-1.4421467382480333,0.1502168093535542,0.6495689186113969
1.3589430509635347,-1.0296457583363103,-0.41459724436506146,1.3462713332591456,0.44196746740147635,-2.212292112983388,0.10126088026069673,-0.2426930982400743
0.2926212075256832,-1.0849053267439843,-0.35672076029343747,0.92950636217219,-0.14707070963771857,1.4179069500978518,0.24506856261836787,-0.0047816143649732695
0.39416076040577736,1.5331681375765016,-1.2236019982692068,0.10475535116935436,0.6864548688909657,-0.2682881947838874,0.5596444318351945,-0.0031306323548619197
1.3433399654166762,0.8958886707008743,0.22206989849303024,0.9816135398800222,-1.279578118892291,-0.6566679636495366,0.9738240008606245,0.22481209633898264
-0.710637996771469,0.4257166186615272,0.27912254946511383,-1.0526725086705244,-1.3066330187805864,-0.6961693224308353,-1.7789267706781202,-0.8079718811076015
0.12329873638118566,-0.5926095213460205,-0.5110295918742359,-0.5159461228054737,-0.6888026003895886,-0.111027292189047,0.8758160453501292,-0.10524113431722643
-0.057319885648234946,1.815871272153926,-0.5917888852372352,0.34482193916894155,0.12358360753390839,0.4129836488239682,-0.11156417399208447,-0.5306779709619284
1.0169307539118893,1.8984751859448306,-0.1395649393805905,1.46270681937869,2.148153691111577,0.3597849873670264,1.1575849712487765,0.4367107513400858
0.03086150465172659,-1.1442660663807294,1.5020942483197148,-0.6731906243699483,0.7025694029708213,-1.8325487439767987,-0.7901040388190325,-1.192904512674973
-1.4047904799565163,-0.2404184767890188,-0.039568532448891316,-1.1895418158589661,-0.05051928175005517,2.189619952609613,-0.705509713125665,1.5840859632449762
0.7758256674027155,-2.749356690889215,0.09898400873639017,0.289086454072477,1.2692891920460223,2.0788641935979113,-1.2104101576084507,-0.5423146723393238
-0.6281016486493654,0.4484041223530126,-1.5988845185563036,1.386917021691412,-1.8029471177464576,1.5611968011825157,-0.235486531066312,-0.7531806442339105
-0.28890311044243516,-0.23746459363108122,0.5839195283695955,-0.9446389077822904,-0.3371759323363751,1.262679477147166,-0.4120471598573973,-0.96897676007749
-0.4710122009003279,1.6803234547199037,-0.4657642498617867,1.0787154307722018,-0.5373750845537119,-0.2345659254590691,-0.03441213017830606,0.3989613505614733
0.4771715900025352,1.7662393683471762,0.896110443438335,1.5651624726483075,1.4636768790522834,-0.13855313697979202,1.7670326365128108,0.28182826338432687
0.8864463019693273,-1.8908727472572828,-0.12838143523449896,1.6765890728280413,1.0937676565969454,0.7192183215108009,0.04864346453012616,-0.9059415994132645
0.19885964927978766,-0.9606350928623584,0.8906100800626597,-0.38429365421254874,1.6133713486794623,-2.1927937188843347,0.06704297198697028,2.476076510361144
0.43935285705430693,0.30978371217339684,0.12324834161913224,0.48009976143073063,-0.8309890311298681,-0.9553941606691164,3.1451781263191347,0.003722437680643619
0.44698530611001447,0.26280627224145314,-0.18673956573259168,-1.1895097755937256,-1.1882870381344712,0.8548577139046573,-0.31834540612449586,1.0137159082875402
0.18385407557460243,-1.9735640168678001,-0.7979196476495481,-0.4092496404263812,0.7272129036539074,-0.48519556768970207,-0.11170363180267126,0.3154505976704744
0.001070930710832468,-1.5446484876684003,0.6942942222921957,-1.1831912039749943,-0.7575753947886523,0.1779839547746339,-0.7564549909416792,-0.7548542656506696
0.20058146728497217,0.0016999457680916797,0.8473640596493399,-0.21194842941426967,-0.5554972568998382,0.11228342076134437,-0.17987601704999423,-0.2415317715464586
0.2150205751973404,-0.7715314728406658,-3.7066377256368392,2.176777315789312,0.2570584479328683,0.4742664434553312,-0.2828471243036427,-1.3101409690411574
1.5751598872970742,2.1011504821761005,0.04768461415984814,0.5360903082410501,-0.8950344534565526,-0.48075598358581223,-0.017024009847319832,-0.549897102393955
0.7037980623333272,0.4866432305221106,-1.598080951764215,0.07526801533909329,0.9298034404032083,-0.9080475092820387,-1.9309794849865418,0.9548241780912339
-0.9760758888426455,0.28305811769336403,-0.2502365380966966,-0.35921524809542205,-0.8237611224804005,-0.10415971542018873,-0.2354971502543356,0.4582395172881287
-0.03243406117760879,0.6925414589489289,-0.6403130592603705,-0.2944651796656502,0.05374872388604392,-0.844235568320533,-1.012710452407676,1.2888286469304073
0.034037960980946746,-1.3998010863676902,-0.08268980574210387,0.7439657058388905,-0.17972652707575074,1.2778944760935065,0.5500477188684938,-0.6828190843224482
-0.8836218293715719,0.7229192564727671,1.4385856556516305,-1.0835610370431115,0.2084600971977692,-0.31715334918503624,-2.1752329885036197,-1.042004746025328
-0.7640113748268407,0.06374981234910193,1.6167251537223406,-2.8565685191905588,-1.4421275685928066,-1.3201471732829269,0.04303759853723961,-1.4592684447522621
-0.4894221876018759,-0.25179241737587205,0.9814754680275813,-0.2369651025942182,0.9335846741681996,0.738992653230749,0.22295253407512908,0.03234035213763031
0.15974727612862313,1.325456531104772,-0.4866270684004466,-1.498358462371293,0.14757243048472077,0.05821135437534173,0.380430416936405,-1.2870039407276286
0.35440375474672614,-0.04224458787341755,0.19664245911479544,-0.9102344570099256,-1.278168173727053,-0.5673320505242015,0.6983103003545844,0.17013533642975767
-0.2921831484191833,1.287716871942938,0.016214089321217068,0.20068486087996412,-0.29426991278514214,-0.36302851362165683,1.6068720827440515,0.912573186573082
-1.3699481371063114,0.7322695720543535,-0.457205986313319,0.38849180263683003,0.48124118863697246,-0.5991833923590433,-1.8167809000678188,0.07584516883169283
-0.9150853337330623,-1.2242125809465734,-0.3870396365733901,0.5026937608195007,0.14555033193164096,-0.508082245383132,-0.26192625782883394,-0.2163299878001354
1.269883364215632,0.41148592989199917,-0.1356602022376331,0.0438949097801256,1.2096426998555723,-0.25722671078460563,0.6650886588316108,1.2582908739973997
-1.0774341624841597,-1.1697743233819453,-0.08423490326674467,-1.0663118389592312,-1.0457571780871342,-0.8584167642192976,-0.08861187132157317,1.0146067928928029
0.07733524791316439,0.641696527432623,0.5198314939049702,-1.3589122499447968,0.8999614333337874,-0.09577003364202542,0.9786185309804649,0.4539728565145052
-0.8264219027047235,0.3780410321223543,1.0289933624232834,0.43385710753748563,0.7195453104408593,1.2976466806572349,-0.8300509095320981,-0.1637190192155153
-0.20277770054688998,0.26809045619667915,-0.42382551804494006,-1.5391012319095874,-1.0190861756831018,0.20296385664321553,0.6047684758008599,-0.7583035070592719
-0.7133679747593198,-0.5334915636059946,0.380979097189664,-0.12199940307673546,-1.3065520098920198,-1.5813284052781318,-0.5390116359269799,-1.0879512955586654
-0.9204984337758264,1.0928932717293336,-0.36827337193054194,-0.6809195566467057,0.8901377206978986,2.383095355440855,0.3856135225038778,-2.4158754197641725
-1.0934304810089153,-1.7336955624047716,-1.791956018190976,-0.7874342258268058,0.23514521213749354,0.5204200341762477,-1.3714183133290845,0.6059949349934183
0.5582150008705351,1.6865768391863107,0.3600270649517764,-0.08936641550335564,0.7467147099816352,-0.18889467990708178,0.48772256122487356,0.01320910958588159
0.8878214317367661,0.9762187488409614,-0.8740731660945024,1.2663455817637577,0.3019555386822504,-0.40211330433367726,-1.3758390412750785,1.2049344940133866
0.6105984106511314,0.648764642531005,0.5665906121335139,0.749977692051745,-1.0992095201225667,1.1319972836347305,0.36532085044478985,0.45019303776499614
-1.742099646087041,1.5390024188784632,0.22880612932565253,-1.3639288516796992,-1.1755918266680023,1.7436804881068027,0.3350893530545147,0.2786073982966999
0.26386275673154813,-0.472135711070313,1.0271934720278157,-0.29723711781163253,0.1088270068696826,1.6639536020231165,0.8781197048371577,0.23139527896813175
-0.5544897218903176,0.06885680435651696,-0.006465755950615426,-0.1014928046189906,-1.3606927244287006,-0.409869903853415,0.7514305370229187,-0.39311385106444585
-3.0416193557154636,0.685318002864297,0.04921094378418919,-1.9139005560515618,-0.19181150339584507,1.0778156940039272,0.11260949186557556,-0.4039818369180465
-0.9008869602247712,2.441416751046099,0.9225706306419869,1.7295016430738201,-1.0087696791605718,1.28479544790914,1.453507792141917,0.056381129032494696
0.89373225303202,-0.7364597755896034,0.3624740337667588,-3.273729699062788,0.16982875014263527,0.42823007778827127,0.20569321860333248,-2.0099870189697855
0.395939852976283,-1.0220139053318122,1.447603082942461,-1.7646619416925011,0.5625484053445298,-0.5265240750497409,0.0770138593628068,-1.8608586272807228
0.5459759112198868,-0.09378007988401695,0.2806835246320084,0.7791844123963847,-0.4311382940226653,0.031008915529518417,0.9727347955364958,-1.1095028735838814
0.5315619845400439,-0.5943630609894573,-0.45966398462109415,1.1386934436348255,0.023635433154554863,-0.03865670914750575,-0.5143159035686884,-0.328600288831992
-1.6636089978312498,-0.03833557764374337,-1.1343605366914258,-0.2916253634524106,-0.007351792623695855,-0.5609193393732249,-1.3726389494912028,1.0999208516708994
0.9129516441061468,-0.23911747648682632,1.2825865903204443,0.030866671990784387,0.46649831852254203,-1.7059627205688397,0.6008507594933686,1.2780217594852765
1.7188693567641684,0.3112534333183657,1.9662824787498492,1.490330925895501,0.3269225120658645,0.30670400996400393,-0.7717611564526047,-0.8910171994595814
0.3311338174454261,0.43643208334390377,-2.370925253308989,-0.30791366063293263,-0.5359961896006192,-1.2329411451339967,-1.0625475535741973,-0.45708093994307714
-0.13791483613084507,0.36348912696443,-0.5160661073738692,0.3111988527893128,-0.10868543951923086,0.3435284938749053,-1.3931596416147696,0.6609983534162034
0.004662178756737722,-1.232950999161572,-1.0949247867597791,0.8885783519563698,0.8895798584046349,-0.8203436539212065,0.23858492041638782,-0.45596687130048325
-1.0690358373151498,-1.760069049600479,-0.7219332890919907,-0.2548298061322014,0.5296412299802432,-1.533565829730169,-0.7704134021453792,0.024020594237592327
-1.1954638355557337,-1.6689566594960747,0.35976596591527155,-2.635842567765009,0.5755698561006902,0.6437287873390317,-0.5145046760434717,-1.4777612643519706
0.43026846311192757,-1.5042873455953294,-0.12094188976018526,-0.1457979363208627,-0.24686592601572707,-0.41727917873254655,0.022835672315860263,-0.5368757987950614
0.6123087752791853,-1.0534779599807214,-0.1407076485234656,1.1440532879220473,-0.17235024391063117,-1.802298414045751,-0.4465355396493655,0.261816919006485
0.30903446839095666,-0.9561704239330717,-1.1002147832266391,1.0096060766798953,-0.945051674393575,0.7412006933036269,-0.8479879830986509,0.14251438104180567
0.6580641225378762,0.3849752792208102,-0.369512750031616,0.9664557840239121,2.8430810827624264,-1.5366454452794305,0.40373907247629837,0.8831435457609836
-1.9273560620724486,-2.015712613398941,1.1128511114165682,1.817874383847208,0.3675269585384576,-1.4162776297106041,0.08251550453214813,1.886176672271363
-0.03607931445961483,1.019683160536595,0.3771651102534215,-1.714806993794837,-1.030053398312338,1.0600456593047038,-0.7613309483049499,0.6128491779327963
1.9546043319067825,-0.14385679014420946,0.3506509471981087,0.19558792750746057,-0.06922364731676067,-0.9239908021875889,1.6241973219623127,0.9280989020352652
-0.5747045243462159,0.06822140566369894,-0.24057938048031838,-0.8321490012689462,0.3073730675108823,-0.8543238194823612,-0.8866781632624197,-0.2744984929619778
0.1113918811471982,0.6466933538714418,-0.05943415313139775,0.21144293170767905,1.683329235165259,-0.4881500811610351,0.0998107184360754,-0.2821599780094881
-1.4520043554903008,-0.37050314669985046,1.0854102084869415,0.29564510639274855,-0.06665917915893214,1.318940048863237,-0.35196214219118727,-0.13983482481335846
-0.665595389927512,-0.33261586237105334,-0.6119130613741258,-0.2960011903537582,-0.33326363704014306,1.370297266814674,-1.8960646885303183,-1.1806303480256208
-0.008218773003906233,-0.42177623670728315,0.004595812978715725,0.6489958857555357,-1.6034605592844926,-0.6205920554201797,0.3657030933140034,-1.8232393127232995
0.5982203072813217,0.4955995520643324,1.1536744188520047,-0.06828602911637927,0.6596128619971184,-0.281516756454441,0.047753066473898244,-1.599470873485943
0.3452169026861256,-0.24894623831996887,-0.23631724125184728,-0.4470122785949101,-1.8976913489329934,0.4478515952973324,-0.0948719690427522,0.15300967107297028
-1.8203963127572014,0.4794645323718259,-0.6871138734915799,0.198293409153976,-0.1435124441981842,0.21509563229883272,-1.8209456043009953,-1.161469441931846
0.33384167398805853,0.3549724182424621,0.2141339819189717,1.219245693785773,-0.42306965913423145,-0.8936832413707535,0.1575316455147826,-0.6375827669593387
0.43596466147441304,-0.5788021452325902,0.07671906606627461,0.07680708965864366,-1.3948456518989099,-0.2674723072036368,1.7914718546382167,-0.12043295111145212
2.0719347533054986,-1.4249895323944597,-0.5022687080415756,0.4016278806082931,0.04590678426338488,-0.39948128748659034,0.5490963668512351,-0.11294370149383971
-0.5328865310012205,0.4964092616656844,-0.7737916093687842,0.3556243292547818,-0.24281975004041362,-0.29307728242739417,-1.8065922284209597,0.4920627473387868
-1.7011741150570636,1.350010416977807,0.6856667007813738,-0.7659875216663748,0.1288975308047078,0.9243058021705379,-0.513772912598373,-0.40912239818477497
0.6298851299506407,-0.7512381223290306,1.6568545633453278,-1.2290096033653775,0.2103881590028879,0.4580401808317386,-0.2479206651564719,-0.9030631603507917
0.6367124308732371,-0.340875962004907,0.14979209332379462,-0.17896655591669366,-1.0044451784108026,-2.7118618479746264,-0.21143808043708073,-0.19492061935721594
-0.02639659041308083,-0.4752139344419956,2.5443941308436333,0.09770817764148623,-1.0983713997663116,-1.631411882646478,0.5248146528693732,-0.13860035642082855
-0.25128795447645647,-1.0306418380860658,-2.651685138775971,0.27138313864201097,0.277279204017037,-0.26176112277141994,-0.38884577748432536,0.8900638813884686
-1.5725899186693075,-0.5529357425243134,-0.6336099559269979,0.5765795251593175,0.600473587829837,-0.8917593901498241,-1.8938904425703857,0.20266010366139234
-0.25732062075641415,-0.8238250439595336,-0.7630217486121808,-0.6300528386788015,-0.40497455225762813,-1.9950849365025904,1.1973591109150843,-1.0044207990995457
1.0742258667725615,0.39760055700635594,-2.063546478422283,-0.5009533173660284,1.2100145261277726,1.4404524305787738,-1.6746267680521334,0.8335953589354396
-0.2677877469070664,0.3460633288168227,-0.44613663472315607,1.4896899720564236,-0.09974253167831712,0.9743665972255517,-1.812204814670841,0.19708571711802236
-0.8627082411738399,0.18124657831030963,-0.6864597294051351,-0.9531795883617126,0.5174115343489284,1.1669906668854761,-0.8533356396326724,0.5450256209877387
0.07197482541948161,1.3433659850391506,0.505408067518418,1.872397671649094,0.8247646506611181,0.04664602598034411,0.7276586522670435,-0.07425614296134934
-0.34590872852430915,-0.2361326260237469,0.004486138774808195,-0.9689581515070794,-1.353947591084338,0.869999265573485,-0.6641304130236562,0.8672972791302557
-0.49881938711839663,1.4635075921596092,2.2870003911727883,-0.5971546136529569,0.8210770558608457,0.6634122463491235,0.25272208551151826,1.2122500022587464
-0.7313056198229261,-0.30574334618387405,-0.10106424468997319,-0.8870163943320589,-0.6210059658149129,0.9115170200611793,0.9860650985741448,-1.0152125735498643
1.179702037317314,-1.2588628109345321,-0.6918433162862065,0.4811855687488695,0.9215928362821413,-0.7725208826042932,-0.08130722561581653,-0.036943403226130156
-0.39991740320058944,-0.48879136421253516,-0.8904386640133191,-1.5358292164859175,0.4618564788771249,-0.8923424654035025,-0.023541823859709494,0.7654379057240797
0.24651168470247553,-2.0856363371334243,-0.5095188724705126,-0.5087756617040096,1.0140171362876278,1.4905312128170254,0.9801909385273329,0.34512479999934476
-0.22122108181188932,1.0373078968998775,-2.5074875689033305,1.5594129737660964,-0.08494493394400016,-0.1202319791857662,0.027877831194678158,1.441294614616891
-0.9375458652227345,0.8263462125428711,-1.2775972659776262,-0.8476040652550638,-0.36847735293540135,0.4327230268532349,1.6548512171993506,-0.14820102490733186
-0.5850380837312115,-0.6519462607537838,-1.7699535806526423,0.5423642813060058,-1.9346563424314829,-0.4147440996722699,-0.4066784950241878,-0.34337664915219235
0.1858212829011951,-1.503444270818794,-1.2221556520436991,0.17282663770746937,0.5832850565312804,0.5512097457969051,-0.45429524889635897,0.07734369461579547
-1.1180665072001823,0.2773861293288837,-1.2786934305018645,-0.14598568751976118,-0.08525088453575294,-0.9875598409981555,-0.20350361492314498,-0.22604654672389
-1.0944369046164188,-0.5569218483129932,-0.02575112260755687,1.312264631563128,-1.9472142620677093,-1.6421527533318385,-0.8133391975752388,0.5171805465662331
-0.5264357964982542,1.6604698818144041,-0.5932874408965638,-0.004784700991578697,0.15130142152937062,0.40116140358046404,-0.058888561468231834,-0.18993823301865778
-0.7487759315865288,-1.3085328827539713,-0.6712002212857013,0.8374971104048373,1.4484578352019346,-0.6032934297513264,0.7356168735347715,1.2703762573843587
1.7436886947607972,0.36941535784542556,1.439469883974966,-1.6664393865040164,0.8934062728458034,-0.5611131193390004,-0.11346380124650535,0.3694322779139703
0.8947889422610691,-1.886233078483857,0.18370869012838484,-0.1202456904863508,0.02000165756429553,1.6222833258094393,0.13574179493501562,0.7427269347415141
-1.8155456245012591,2.055258166557452,1.1203799479553813,1.6218173527919026,1.069738598428545,-0.4487537348199609,-0.5920429364336236,-0.8746032181108574
-1.1675719441234675,1.695713535344754,0.8848417306631486,-1.7104890928686785,-0.8512250962854258,-0.3108789840386775,0.24030687676187656,0.7723482006058667
0.49985240086068183,0.42008683719703377,-0.7427607613047363,1.3962700235589776,1.8048750219236973,1.7488512151456552,1.0543299749475763,0.9408216941667377
-0.4207149575129838,-0.909656350957563,-1.1232452102177013,-0.3217815576699794,-0.27060951966010843,-0.8325393639469401,-0.7342607585102146,2.0934623750121055
0.3251672600554709,-0.11473174861964,-1.5925337896964953,-0.2197942636799006,1.6549994200926696,-1.6915318076200765,0.6617346448975947,-1.117621079998489
0.8038361714708522,-0.9698867881430357,0.29992483439597156,1.8038346018937519,0.6455150894221621,0.6495717690661809,-0.8569900675348494,0.001560637306194383
0.1969969176498522,1.2938199197454334,-0.45671726144565566,1.5245506189690796,0.3235873080840177,-0.6202937512700035,1.5381411750033203,-1.496057153763539
0.2976658786848891,0.9585033297522614,-1.28144298235285,0.8377232165132695,0.5293231088984348,2.152532673695112,-0.14549231064002482,1.0403253236380121
0.332287096955417,0.12885996738242966,1.0003049468483833,0.13926843792431706,0.9690184340960141,-1.7597379644886437,1.0854786898485194,1.0199054178355618
-1.2250276448443176,-0.633940666003701,-0.23561221430876306,-0.8956245357457742,-1.0087749792514809,-0.05662650292638958,0.0936187129126699,0.9662422171637626
0.43529904666838165,-0.17995082973958945,1.0948785187386734,-0.5514017144907063,-1.8578736425251057,-1.5276376314054672,1.2569779408504553,-0.11905756176590056
0.5787876185891947,0.33803338742715117,-2.1461117684115862,0.23037912377799116,1.960324200729977,-0.6207151207679603,-1.4981717167497692,-0.699003927850843
0.7797679150229623,0.48572438356789793,-1.516835031195533,-0.27923468250908545,0.06157450474822219,-0.34962275422805317,0.9308249309235784,-1.3877310262561895
-0.3518950122282012,0.3929707906579804,-0.11207290493572779,0.46834093672952665,0.10623669712676843,-0.6085893292970602,0.803652861023149,0.4270510150912519
1.7612461332267693,-1.4265168768967749,-0.19177566560613435,-0.8285528472256679,-0.6180606621938269,0.35772468307337973,-0.8594101533161191,0.03945384018283433
-0.5456884048978501,0.02589926952726704,1.5491865577494124,1.1822654112938553,1.3036644702833318,0.3289591426873704,0.9155938853123826,-1.3300088085761992
-0.3873965066222366,-0.9950386320106932,0.15603402097069377,0.019987024859529808,-0.807210933726532,-1.3984518210381462,0.015272947732297815,-0.7019274062911627
-0.8591169665968372,0.6552410939893152,-0.8850953981669499,1.6926945262367519,0.5648069062088691,0.2895915735436547,-0.053654331298204065,0.4851897829498643
-0.8869962138423237,0.14354385805300196,0.02387015867880408,-2.787173876376789,-0.3095310943192824,0.3591265758124044,0.6074444389209053,1.3139305680091617
-0.7278302444126727,1.9757540068537998,1.4986007232069187,0.24183889816736015,-1.3421941173208678,0.7421153380579506,0.353522439003924,-0.16301938552736084
-0.8160068121025595,-0.8243829908124266,-0.9982815035763728,1.1776761918825132,-0.48063453746984014,0.5531080471076114,-0.33274018693719054,0.09872575898401992
-0.9331446899175484,-1.2541494773531459,0.04912402043275739,0.1549077908486515,1.5024324897633474,0.28172618165328134,1.5108111315672281,-1.2103512440307336
-0.40260674382156897,-0.26706052260486535,-0.1963039477610665,0.5476116654729349,-0.02126984368981212,-0.630794583043693,-1.4573553655825162,-0.6508832001197274
-0.07008950461109999,0.42147936933703367,0.39703989336229945,-0.030731641784157045,0.8832725405605097,0.13132835534980358,0.3131704432156692,0.04581760234509938
-1.4963333463655326,-0.6454466715365094,-0.5191663908835316,0.24005432282294356,-1.628646120450427,1.0728278125446333,-0.5449259599815988,-0.5028585347893082
-0.7452767542133887,1.2828857780874776,-1.0416208377423275,0.866073512973458,0.06091962036985292,-1.1374656931561644,0.3194824676557489,1.450027723921233
-1.129100434943771,-0.04357224376130512,0.05920962308928985,-0.048265287792863765,-1.9752136423537603,2.4141979353895437,-1.2090032324557685,0.8996203960464666
-0.04441469290834349,-1.1289949931770562,-0.3369075527735208,-0.630085975376999,1.1716096196266932,0.0457372092132718,0.39928242275611914,-0.17165617936864974
0.22111140596712528,0.40255695128145064,0.48254615561287456,0.16431521258367845,-0.5425970639346812,-0.5847681481429533,-0.17795508200374213,-1.2864957127749728
-0.01925762288795992,-1.9126533246674142,0.7645990285029335,0.7458692026404831,0.01900228632579641,-0.7856614614103936,1.7553599888476767,-0.9953767976608745
-1.6913999271415985,-0.4093304750667306,0.5087571151965347,0.06059043009950213,1.3577527021188054,1.3043869150745337,-0.04838796543076748,-0.0747115593615143
-0.10779903456233049,-1.0949861217883472,-1.6281054236572197,0.37429535645678913,-0.8649087016148698,-1.551138438545611,-0.19281322915981994,-0.7984895898410946
0.7228615873189012,0.3188287268582209,-0.9348203697850836,-0.3266148876559555,-1.05212258830186,-0.7291075370295418,-0.02579455705744654,-1.4681361521525347
-1.8562664308276589,0.6621485700722586,0.36108724570218836,-0.8780065711112269,-0.43299884721285314,-1.800964345227286,-1.1977608271965734,2.596246077378705
-0.7071573183677095,0.5586257962369691,-0.8021525065587614,-0.924889448649666,0.25601656176842447,0.5883021741438571,2.282624014224664,-1.321877855383508
1.9706348432939669,-0.335937184831569,0.43840634253470895,-0.7577695857358182,-0.29380515101547505,-0.049967503510687405,1.5816225929011412,0.6990133940016721
0.9802236153920352,1.2050490264705926,0.2958332402519352,-0.1783630922211257,-0.27816735937287923,-0.5323882957322874,-0.14892816227035682,-0.7961469443068058
-1.3540221471653127,-0.384363845650374,-2.214065414699571,0.9146123153685187,-1.4290147417955594,1.8101713872552483,-2.0177794648397884,0.07700794265536366
-0.24414379459417038,0.4192337397426391,-0.5070937049210039,1.003416597560975,-0.8106266020213815,-0.026002087102476572,-0.9398719531968398,-0.32184495823258147
0.683194049798358,0.25992372426122173,0.6819737773126819,0.17061475810687643,1.6082409733326068,1.527112316510243,0.17609630861382425,0.029234865932063574
1.296519137455725,0.9594492552119729,-0.3695162113877936,0.42723447409609183,0.7055967006462983,-1.3067192015689784,-1.0206328957229212,1.1296266570034854
-2.074424773664935,0.1928871856706114,0.4893114058764963,-0.07766716537402188,0.7001225961891271,2.6650661618508202,0.8629463328994939,1.2575744924747334
1.0037568471884193,-0.000122641084140249,-1.494419294538248,-1.9840871633507484,-0.007768003409109747,-0.2245605513218682,0.34957437096306415,1.1537861751407565
0.005426349376051198,-0.6053469354134415,2.061247287094503,0.3404709467274256,0.603694560950757,0.43226662928603876,0.4398965359111677,0.8100536773072924
-2.735959785649546,1.3481770840137934,0.39039379937971774,-0.5821275869594714,-0.6010847429886229,-0.3489798701333214,0.711826937427482,0.02651702108825745
1.2181598090265735,-0.8306933032217052,0.3317747671390378,0.19533352558304612,-0.1573277487734783,1.0790994257543856,1.070115884001367,0.5492573967588458
0.2981349759295986,1.968951531295764,0.5862758439272561,0.180171891635545,1.59830652461058,0.367986829024711,0.824517738534428,-1.3747974237073473
0.6327021651093762,-1.0211281566883794,-0.4131588265571435,0.4883112544805611,-0.11606924486688724,0.32132432018164064,-0.13789046119566528,0.07487667287251192
1.502784300929578,-0.3001664139680395,-0.3118672215349507,-0.41399316575644335,1.787014131881498,0.49688170324054326,1.4555695213243833,2.025388523458723
0.29373452471312533,0.7204435254840522,-0.8328323229333795,0.384014035702911,0.8856202462303788,0.35990120154671423,0.21837815958410473,2.5613878289071925
0.14104645020464657,-0.3005470799026117,1.5243857137265144,-0.5245880524001522,0.13663318515294118,-1.1114517392065575,0.6176928159346946,-0.569360129609534
-1.0061927319650468,0.1481389534660895,0.12166650058871946,-1.726581919398212,0.6905834711019988,-0.8764143480833081,1.174991133574295,-0.8377375703768405
-2.2326302333223174,-0.029497184883264364,-0.6049563559861261,0.628964832760133,0.9069790963675097,0.5380918681253761,-0.2775678194941352,-0.7492127451099757
-2.8433033136818837,-1.1091105640869008,0.5482341237494273,-2.3856355674800453,-0.21784900312545463,0.83619402722104,2.4376353036377463,0.7385644456979377
0.028638743560011226,1.09124693432853,0.21539729294805005,-0.5270633526850359,0.7051322028001021,1.6281898212608188,-1.2916370063418614,-0.44964382903955863
0.2013030335599502,0.37856799180728645,-0.7953234379724715,0.03846684960616427,-0.8665745899620907,0.6997218888891958,1.097229920324232,-0.5219801772449514
-0.21847413985377612,-0.190107767827851,1.3204922415715095,-1.0049839946778905,0.9743124333108856,1.2220466195199842,-0.3640956695822855,-0.5840916939807567
0.9422847433924867,-0.16393051438356226,0.4165326244525895,-1.0258878283817496,-0.6014823346661399,-0.42281049225067474,-0.7737920211945997,0.48889933425034415
0.5789206871788186,0.5907376562469796,0.3662637607031775,-0.1725851877777482,1.5378197284806578,1.0812699275436186,-1.1537853687207167,0.8217077943257218
0.19457666596807502,0.8515069860597813,0.2141026456953148,1.369689734221396,-0.7489573434374112,1.8830505648030937,0.08520346640390243,0.3028233675063818
-0.1364761775613019,-0.2236275190772052,1.3555145675886242,-0.1583584790528917,-0.48302089009538024,0.08707592766470891,-1.5011249584333068,2.4561385641254874
0.7979353256435409,1.1610702632697305,0.23670041716885226,-0.5606977407518086,-1.0681199162937771,1.0793169319291591,-2.247381672913171,-1.5190945114708148
-0.9862036080905144,0.2384472562299111,-1.240724579104927,0.9606072641523412,-0.01786648426710034,-0.6110402299138379,-0.2389452913078588,-0.5163442320207059
0.8434985062336986,-0.5966235611879603,-0.8699669210290008,-1.2737523173373224,2.238234933827496,-0.9656516744421677,2.1957006045380965,1.9198025684057647
0.2684741271939461,-0.013972428622337621,-0.06962051036029931,0.048774514971629504,0.9188678775824214,0.5738730616204316,0.9599828111803008,-0.1484820863594799
0.6046596793528816,0.3134883110711811,0.19031349624500274,1.2972869805493739,-0.2423969038104276,-0.38971185998285224,-0.48556024622822064,1.214709993258722
1.0987911778265997,-0.9132975901512491,-0.6320186074257044,-0.5124816486336964,1.1921394136159076,-0.7854522977104372,-1.2818551368045235,1.2555209496572404
0.13859512976509497,-0.011443975631810483,-0.008107654108080072,-0.1214554926872507,-0.6983629680097825,-1.0061965470264191,1.4842725188081356,-0.3636491051214102
-1.0787598071194022,0.1398720728631618,-0.5395236813204047,-0.6378060162718044,2.376850052932656,0.07902574410663338,0.4095904196101287,-0.425524930784714
-2.4200053430302764,-0.43761273190404126,0.22892936603129974,1.3043009119483238,1.1457214414766463,1.0676663331265386,1.3681940228362035,-0.5518593932745002
0.1259704725742167,0.8312796574404128,0.011520237670829181,0.09804811893282304,-0.7535098706691074,0.023503855498251222,-1.8024380167690555,-0.20547354134299678
0.5406420677646389,-0.1624034021798439,-0.2025587055531599,-0.5471444191274061,0.35655124609697025,-0.16583902555419863,-0.6421066386622271,-0.18600198810724491
-0.8056530241310088,1.5914319176738752,0.49269861359729794,-1.280281723491939,0.443529136761457,1.6710315140271517,1.563994433709819,0.5501336179452964
-1.7328394146823947,-0.33863335648760895,-0.7680238891104818,-0.30985245775582765,-0.29835936832000315,-0.38437375598537615,0.3160745013128746,-1.7535840710709443
0.8029859301495279,-0.0237840721718767,-0.359767571774977,-0.5265353674857387,0.5431434047429536,0.1189776792883087,-1.1754008092193104,-1.1322818897718272
0.08242136566672902,0.8301654369415014,-1.0984085784493984,-0.6928354889824163,0.6263474589314835,-0.28067786629582314,0.597191949008131,1.1130869201438733
0.3222818194233386,0.8173031565797714,0.03199750755079948,-0.07351835239224888,-0.28837821931781094,-0.0921216462287649,-0.18804844006191948,0.283539264037901
1.636889779440696,-0.055816816400028585,-1.0526319740871608,-1.855402582044752,-0.5781097421346592,-1.5301603277057956,1.1390197262063622,-0.5916604161538311
0.774052568667097,1.1114863045246481,-0.12632391860024966,0.789769508151336,0.4805799939843801,-0.6433886374245903,1.2426720323694207,0.324228804646925
-1.7729973486528146,1.3352267502789927,-0.8139104578263877,0.1903103753358212,-2.7186459129468177,-0.03476891086145467,-1.8057306539947566,1.365190869584213
-0.23158678926196474,0.1737218879679589,0.2254116259383624,0.1849487475988995,-2.0211451689733146,0.7436110055499026,0.4831268691635723,0.24172428667659862
-0.7949538702846238,-0.036138890863585814,1.0984576931104006,-1.1599220431908122,-0.03584219483884014,0.3737711708490045,-0.10268246088062702,1.466276423415537
-1.4372268093986167,0.08858464060613407,-0.5830333826891922,-0.23276320323747943,-0.2848126217217196,-0.9475517142988694,-0.0841636402998261,0.433278641096674
-1.8329448326979265,1.9236167361997965,0.1319194172350742,-0.8650469480293134,0.7652024084576897,1.988665381165267,-1.1982735243956972,-0.9272128111176312
-0.022485411149181633,-1.4485028240070386,-0.7284139399539448,0.09145878260142062,-0.9524134465525015,0.8176444418548686,1.3301991372393043,-0.3763870783506061
-0.4048535176375433,-0.5460643660369389,-0.4066166953564129,0.7666782601681948,2.112694035183561,1.6800445614744253,0.06276443394061243,0.9832847647000437
1.6280126217980604,-1.187248797165544,-0.14402238065947595,-0.3474157617649171,-2.0239128176730876,-1.9461867173828358,1.1397762231394164,-0.09101191558774763
0.4342390657281932,1.5622705958700664,0.6221466411062617,-0.38670130622997845,-1.5137332593004886,-0.5683154288444467,0.05704222386294582,-0.8272478357421909
-0.26248996253792084,0.6436180254921466,-1.0001839974475493,-0.9320968604500337,1.9067513768824813,-0.8149915777592812,-0.30851423015464735,-0.7008693393812454
-0.23656367112648163,-1.1576524790405152,0.9412422541958346,0.9132987495786743,0.3532747408578805,0.03985912937800971,-0.021562273681822976,-0.6130666296224007
-0.2611879768142941,0.6673587763134037,0.34471793123313127,-1.5230745356773512,-0.2832567447092375,0.5082198320433621,0.22186286846453981,-0.12431862765256334
1.6174473835808125,0.2678783613769394,-0.11851843575808196,-0.09067818797779562,0.1147433646929065,-0.5529771722965178,-0.9612381764249754,-0.4136470148054027
-1.7992009991732274,-0.19334105518047362,-1.0549396743641515,0.6315603343415493,-0.29417951911933987,-1.6550803390913311,-0.7635519097438136,1.2991595365575501
0.5680551900594049,0.4212111071914897,-0.43699909374238755,1.1095234736383037,-0.5811725515017516,-0.3338733876646578,0.9493768083131111,-0.9595493463513263
-0.30465884251751946,-0.0908236831697072,-1.3346687134468955,0.28161836691275843,-0.325305859265924,0.6882020839326526,-0.07167159325815171,0.44034945057220315
1.2979869619782554,0.46602744946632474,2.5319144295184577,0.04924950019231675,1.2191412949045455,0.9175438450694378,-0.33355975279720573,1.0978869734742553
0.6065889286507102,0.12519089608344697,1.3326730614064919,-1.1649825728994365,0.0705749369732944,1.982802663186927,-0.20554499663077302,0.2093311957575095
0.5587682285300015,0.4914588698064632,-0.44864394436753385,-0.10385162789165807,-0.3555133371518664,0.20625762386630922,-0.27687192354617485,0.734394985993239
-0.7071406045694801,-0.6960471311321758,0.1372437067186524,-1.6977468521673955,1.085337627981689,0.04974211773023926,1.5610095566372681,-0.0524175272388126
-0.2870384927650731,-0.604659742482599,-1.8982317608121488,0.7504688709320408,-1.173841566872579,0.014098172817012254,1.8123197088071026,-0.3679406849034274
1.7492702943302139,0.5146768587033212,0.6387402174246232,0.8368921377382391,-0.15982901661146587,0.1966837101923691,0.3456447262382787,1.1060144525460287
0.17132389622310248,0.21705460410988855,0.25368841852369145,1.7755702516084866,0.6049874847891418,1.1640524740881257,1.158524030796425,-1.086882585301099
-0.8122006721592343,0.8724382909948081,-0.9376520195401602,0.7079704895528739,-0.5530706930027177,-0.3485165533551666,2.0360825636791358,-0.20967554566535718
-2.192978747966474,0.5414243540641545,-0.6844985501638376,-0.4712610113085077,-0.35863335072890434,-0.1754671002317294,0.6930861268744387,-0.8536574871950404
-0.08999144606625659,0.32401911851337933,1.628660459826058,1.9504157559992759,1.1473546804378125,-0.06493553720181919,-0.6763426191121451,-0.6604239272468919
0.49431679218512126,1.4228156539570602,0.6097634442546119,1.8538599817242636,1.1989004921700221,-1.2312457261169585,-0.31573687546135826,2.1713722492879612
-1.414992577395711,-2.415573534648603,-0.1544431447288433,1.4835254387327037,0.05559981711720916,0.648814043357709,1.931601015347195,-1.2175937896440812
0.5366993695123413,-0.0057677686118158536,0.6482527993121439,-1.292495383905882,1.724083172665739,-0.19830635710681283,-1.0122326841741525,-2.093895165528293
1.8253474497504294,-0.1983189407523882,0.46137805366159335,0.1751040368030391,0.23894073719106118,-0.2058743185076413,0.4462340385350476,0.10880911706875075
-0.8134057798777927,0.48874277425982976,-0.9980667086320039,0.27178123337994653,0.8609701069869494,-0.28305972525931844,0.6828120722039333,0.25465955618509056
0.9825381902754596,-0.8185351347981492,-1.250413350368237,0.5584034957090539,0.8441798172695693,-0.9411518648193516,-1.0582281196445007,0.5980682463081304
-0.9654751794832784,0.60230902567655,0.3554041468046651,1.6401286362833136,-1.0599214267855475,-1.703470460767968,-2.109061212438649,-1.2964283004222033
-0.4732439273788919,0.7686771110853687,1.5638459622382541,-1.6090809266369899,-1.2071033116582182,1.372462821365089,0.7056703298615692,-0.14592810737759632
1.536183071294073,0.19140602597362194,0.6411999906846493,0.6750073146964414,-0.6720066993600988,-2.5345028249303274,1.5504679250431344,-0.864412262568035
-0.101273829575749,1.0793136116405682,1.1281983865668719,0.18892968779253508,-0.5183275670603853,-2.023574458823143,0.008662282813693332,3.415071970779904
-2.5646564947226818,-0.3053683809716476,0.4573088413542295,0.2036860530629551,-1.064157986631742,0.7249607659784583,-0.9894126791777899,-0.17803099739240666
-1.1821614709981447,-0.16488700044890964,-1.8725080858131717,-1.422112179373526,1.1868255207042846,0.5889142677015231,-0.6880846488241769,0.8568749676331616
0.8621908272423049,2.0110742206635117,-0.7480051338465755,0.5348134494815916,0.3599148368993885,0.48247483127019664,0.5385397123670356,0.3152327500456025
-1.3352847151014564,1.995273959404602,-2.1192684168149474,0.8881389034976278,1.760043346615649,-0.10534349861188996,-0.8888750538924656,1.2986918532585672
0.9197015635361199,-0.964864771488521,-0.7819716771866716,-0.2893289102472057,0.26745830720946534,0.5481537862064082,-1.1823292967925352,0.22137500661110437
0.6759533774903291,-1.2691125494729567,-0.2180145034016417,-0.5096468193346723,0.45155699054445486,1.0768585295816715,-0.902970813806325,0.2884017567825097
0.9459652568413982,-0.5656318747355202,1.0823436638416117,-0.553644888075323,-2.345009864042037,0.055714684171195905,0.2081387125596578,-0.4617259301089167
0.07758356221426402,0.5063424477635294,-0.11862945935006483,-0.27425772913320845,-0.11121606862002767,1.7659311307120609,-0.8618191797405372,-0.45399922951487937
0.8665715879954042,-1.3919407615313382,0.5955560963420731,-2.157080498846073,-0.13224619341982113,-2.0656082170298693,-0.7581148937392627,1.3243316134910863
0.759234645201773,0.04457883666642949,-0.6913340981893157,-0.8201657590970662,-1.3725108566716535,-0.8780556974725422,0.26098847267522585,0.8278788910013571
-0.07792954733771112,-0.11222753050562163,-1.7675209048831224,-0.26966004980281816,0.4053551466342034,-0.5458284611102839,-1.9058934098831979,-2.8801602786578324
-1.6909450938301809,0.2798029732389464,-0.17081009327925756,0.7732058121101798,0.3064716965970477,-1.088893831296584,-0.4181609839143007,1.1370586426284865
0.6452751645650047,-1.1784632325674025,1.0381259448990117,-0.040463904178472225,0.6423352556816664,-0.8480070170150358,0.6668574345843893,0.056860794039832706
0.11019140355941939,0.8351906083376177,0.5032764329803173,0.5620600517360701,1.4698957778648045,-0.44381860922607036,-2.2348939034380013,-1.8831014642631727
-1.3603234882539839,-0.16398982979748164,0.39374434306532097,-0.19812937523954408,0.6879689693610532,0.6107521314608728,2.327419046702821,-1.1286146247020035
0.7747107799156024,-0.5979066065699441,0.6287002245281502,0.325394992688311,0.49055044682153875,0.2675324934812302,0.875454951997554,-0.9787804524467593
0.15814123946532538,-0.9987404986648042,0.20716278282365147,-0.5401799223119373,-0.16474243866655697,-1.9709308237797525,0.08515569568381928,1.5425822047490656
-0.19162108554035545,-1.662134731007096,0.7841584283710402,-0.5759459566868226,0.18818411567302065,1.6183214998828142,0.46396555213806595,0.2678091337292786
-0.39525844314063524,0.7679659764771416,-0.5064112792326155,0.7008760846323153,0.9709942131070648,0.340389572316704,-0.7093697863798808,1.0259257605798116
2.054574505463313,0.45048992163617196,-0.05301546730850207,-1.2497511149742986,-1.2779428685254457,0.5060487335364691,-1.4065471060071535,1.417224015273143
-0.22169427204019812,0.4676341212553645,-0.783677149820531,2.224812516070423,-0.68888177292014,-1.6626959569790598,2.4937558667690922,0.4397169307259525
0.4467205187230226,-0.2238568280368438,-0.9347911771348093,1.264517028154312,0.7511930768086269,-0.6115307161630514,0.9200115388374552,-0.3073934606529057
-1.4701261377661448,0.07655839003232982,-1.273134330669153,0.7178314709386554,-0.29720825257651523,2.2428145613431427,0.7556239811747046,-1.3795065600623164
1.0834783377010302,-0.9537748979957567,0.6744894194359392,0.27428100778827386,-0.5087434402514468,0.8074934832972336,-0.8339591328553855,-0.5817875427453665
1.2064984424657268,-2.225678770631567,0.08370535052063094,-0.829657661651567,0.7483034314851023,-1.0362240925509,0.10667311603111089,0.3029222454802096
-1.0378084690224152,-0.9936660141801641,1.4016133939856497,0.4825053784050731,1.2465242086361032,0.49644048241915734,-0.9657114933673394,-0.13639118595568162
0.4607163156469172,-1.9784029801299625,-0.7556083802841389,-0.08557707720785343,-0.7310337600167562,0.7787347651386055,0.5759226973724167,-0.4590483905422927
-0.41493702898509865,-0.5248398610734426,0.5814534006222812,0.28680353989816376,-0.4209267412890302,0.31374117425786785,-0.2383872455105592,0.5222808068948026
-0.48473838617159726,0.8434473776692372,0.7522746527235298,-0.3422537223953407,-0.11008900983796853,1.1568936749873977,1.4027931159793454,-0.41180951217124484
0.34624531630867633,-0.5349483843100294,0.4810592990122628,2.146899301226605,0.4946343561886582,-0.3152340542854172,-1.5668737374692068,0.2732445319225779
2.5072470846309685,-0.31413672936940845,-0.1449770424254644,1.7586034808649496,-0.7260194912218585,0.007834658678998832,0.42054388734005455,2.14743016511678
0.6275141322901465,0.027305828018982188,-0.23070019200573608,-0.4001474148805028,-1.0793955961684774,0.4149765218392059,-0.7124024048191202,0.27388191038460763
0.9883130020504343,0.14460298547693187,-1.0892740591701795,0.2489269562469243,1.2547943582473289,0.6215282634488317,0.21705287691786723,-1.2727673998775593
0.21409046424005912,0.33383638892363027,0.8487627935536174,0.8492065183038529,-1.828641318878064,0.5673315705850558,-0.10003414928781525,0.11679460024190069
0.05221389646134072,-0.5377679822931359,0.3378590108437149,-0.6718946745318546,-0.36947845218509157,-0.5465214553762383,1.3365772019898,1.3956256585343767
1.5402428266958192,-0.6130353222135613,-1.0670680506209056,0.2932399745037415,1.0755496802093822,-2.648578048091733,1.15799781521458,0.507031854528097
0.2040233671130863,1.087308132235397,2.2866766505303,-0.7087399755352255,-0.6877451299878234,-1.6290245580207285,0.5043998069921346,0.36837232083877497
-0.6680472143499204,-0.488277166836304,-1.8063597544076084,0.0824509084492384,0.29953848148132817,-0.937914003680005,0.5542380899618983,0.5532853210283325
-0.39248010984127907,-1.2678885632434358,1.1129469426581757,1.158940648801035,0.18303209809539261,-0.6552309893303391,-0.8890376231762026,-1.4989634399153653
0.1923944648320981,-0.39543864251628574,1.165771361650954,0.021341885665611425,-0.9765638391689284,0.09036719221074,0.14479984343224556,-1.017344055922257
0.3229674535028337,-0.8694020418896886,-0.3803969436460364,-0.8205217009722502,-0.10243591832125744,0.5073150336258676,1.2435427730712645,-0.33207449792567634
-0.896555185272913,0.3725381718752961,0.8210663374286201,-0.9377683041545853,1.6034538899769921,0.7816019563643444,0.3617998416618062,-0.798981864603196
-1.9660535855938,1.0911005075088538,1.356906605047401,0.5844057058042479,-0.5409583098973662,-0.2441043288583415,0.00551793434124144,0.8321651204510631
0.6231880935463359,-1.2923520369955814,0.5134958368420771,1.0353502622398152,-2.1618653714727736,-0.18055460273049376,1.9036705774212626,-0.45896060287153667
0.9471776767694394,-0.0022750614040859553,0.08528996823464513,2.2327862903099165,-0.8746417292772466,1.1348806290868965,2.285265605019734,-0.8376178373695612
0.07793160864767398,-0.24421545250187793,-1.8663394327813236,-1.4601235904109209,-0.8226351592369919,-0.6001392843794986,-0.09977946260715635,-1.5236137090516428
0.16218039613411608,0.20427152161546488,0.07853471772034104,1.224923638511539,1.9704228456440729,0.22916098661407955,-1.1870790527248918,0.8375821886976935
-1.1346426175831377,-1.8320172101005765,-0.5423398694170329,0.13442787375270768,-0.3180775492438699,0.5411505160198161,0.5679812411747618,-0.21869603198152113
-0.8542170826290829,1.2322167463779854,0.05780322559712704,-0.19333149534799796,-0.13490649141069638,-0.32792515943176836,-0.12822288532402829,-0.9072035225178594
0.8448895771188891,0.9801334071239144,0.19289223213668194,-0.3569810894228864,2.1277812716846265,1.5109069295015058,-0.8642411085747611,-0.5067168970659052
0.2012822029512925,-0.9216498102309626,-0.6893992033698034,0.8467098881479013,0.7568469273863127,-0.9996074308655365,-0.9880482446381798,-0.8404625735081535
-0.5165814585299876,-0.7807575819629452,0.4287142636944881,-0.21586659321253218,-0.9651343807186987,-0.23311157746810554,-0.24010134606302794,0.1692150725336613
0.5202442722294235,0.916349746748479,0.9329699323056418,0.24023226529552633,1.181122220819619,0.22883260580913203,-0.8971521039381151,-0.777313147242736
0.5967011733897761,0.6036611569425292,0.8280836935323563,-0.409544769820538,2.1312983578151994,1.9525516612558185,-0.781757583444885,1.7428080770782635
0.3615334977521279,-0.19148604086554136,-1.961278767760794,-1.2876643575771827,-1.3942182289749119,1.4930002526957042,2.060105110212249,-0.507950919242974
0.41249652720257096,0.3918518030283625,-0.15485498553540228,1.2783414622683422,0.7440259691361331,-0.8274225293740428,0.3732699951759628,-0.5899069551880267
1.6576100008341985,0.05887969820923421,-2.7529151749672165,1.1879048785539126,-0.30136111363107837,-0.0038493956051867534,-0.34850297467262403,0.05959791032095693
-2.4263979059594134,1.7008823963861026,0.6386038865791596,-1.1404567796094782,-0.9185841003596141,0.5235913012820251,-0.14773480494678454,-1.3362920002939453
-0.4882959125024845,1.168687617698972,-0.1761772886849351,-0.12321074924607574,0.0844617956650349,-1.0537153373814632,0.540098221345823,1.2804480342164029
0.1065932288810111,-0.10155948103980773,1.3621190217311485,1.0273634715718205,0.1050628285834035,-0.6115618431246942,-0.7506520203394623,0.9124590221311544
-0.6616489421823121,-0.7841053951720021,0.6665219711184418,-0.08465879833074179,1.0900280232739126,-0.9242974647596902,0.6906299472485227,-0.3776342850579337
1.1104069882529846,-1.001283779441177,1.7139682541477368,-2.352293775114996,-0.03266086294594554,0.8463710009154499,0.7184302681922797,0.464985583337868
0.4275436149647417,0.16221976596728613,-0.1938401072715376,-0.7749115896322257,-1.1569667608906498,0.762698006196285,-0.039861229237470784,0.6573660341747686
0.613837380637856,-0.28142291923972224,-2.767548836924413,-0.264975627606456,0.2583488434514487,-0.7191850705449989,-0.2144058383916593,1.4650215868345025
-0.2814525350114544,-0.9443076254292887,1.1611640039021658,-0.7548801640203894,0.32243583865072983,0.6522610547239664,-0.9230898145176755,0.383298060113845
-0.9685990934129997,-0.464736572400819,0.6795927256186549,1.2825400730200063,0.44223807489732697,-0.6729624021797649,0.23400105927700307,-0.8560117166598207
0.2899407473207573,0.7952201594960883,-1.267738083528134,-0.374445734885255,-0.2877629327841212,-0.9282114899921114,0.20250073104714716,-1.1288309111174013
1.8509507597841999,0.757700197870882,-0.538595850997558,0.4127751456276883,1.5519046681274447,1.4736528358168126,0.26508827041168836,-0.2962810037504097
0.6800598101429252,1.1980201422832026,-1.819986247030529,1.7573855618144976,-1.156964946150559,-1.2271062030695519,-1.3473167100968815,0.571441937675223
-1.760069838116157,0.44906911506904706,0.5770847299598567,0.1702603607480544,0.07349626354532952,0.1588230771655033,-1.2897672499695851,-1.304289405276168
1.5035790730642533,0.24835796372709854,0.9276631079883381,-1.2276763954028285,-1.1887841486931234,1.2714532443006048,-2.458252044074776,-0.6180872861790082
0.6056711133384549,-0.13902221172135643,-0.021363289095414333,-1.263247313829527,0.24289369276706704,-0.9860480752410233,-0.7222254398648814,-1.4993099457684729
0.30299695568602003,-0.33078723244711816,-1.2983338217090563,-1.8157523818586234,0.211907736163556,-0.954716591582591,-0.397799137862435,-0.2180826253867299
-1.0446586214429012,0.17860397314324444,-1.6351284793326355,1.2680947782912035,1.736179097683254,0.0823669721727451,2.0487230289964455,-0.3954134438157215
1.4106718788292156,-1.2966164786054097,0.7256064859400969,0.5519840342973185,-1.7371971694159476,0.4334750625104223,-1.1585231108308403,-0.9663193289187468
1.3050494841936746,-0.3530508893851655,0.06339478833225626,-0.6143728917761846,-0.23578003434414152,0.9871394157390098,-1.3657216558179832,-1.4029884347045614
-0.8514877421518533,-0.5483657884134846,0.06167381872290055,0.3295020692739695,1.6201314746110052,-0.7059784197040152,-0.05688748420028879,1.2395497270913085
0.9754473610558787,-0.23238326646615406,-0.24550524604656984,-0.2750804090814717,-0.9214570156363754,-0.06976055105549847,0.042520667411752415,0.8444574779592239
1.2145647200324385,-0.3733692143102509,-0.7401553496891798,2.6155974317771156,1.9481025796791571,-0.2741769823163517,-1.6989944992392931,0.450238882523694
-0.7795436871872929,-0.9544121823562515,-0.13390199286642157,0.8867707165202248,-0.8757745497163191,0.18734946374262923,1.1477333789229256,-0.30966870474737973
-0.4970214588332616,-0.5023691895216215,1.031106431120857,0.36731227449226544,0.40331954050841146,0.7482674738864609,-0.25774631524946034,-1.0106356506302054
0.11253321499226145,0.15563888579152013,-0.08616687830895733,1.51323734942349,0.39463679457787193,0.6170139167271786,0.6370042097391287,-0.6935453939604602
-1.8966608597602685,1.094252143020457,1.5433528114550137,0.49782593782976414,0.9574893257677959,0.17306827578209924,-0.07515152291282451,-0.38133086446247544
1.1016725907412879,0.631328723031802,-1.1978772011073053,1.1214047805778276,-0.827549158736438,0.362282203811434,-1.1827636118808214,0.21563500369169641
-0.4561735492219979,0.11729343374582185,0.10531894943815814,0.45635961534603203,-0.4860173882260798,-0.8089022758633925,-1.0170197082301227,0.2926273662869633
-0.9956674069644328,1.95884256835311,0.15959469934122003,1.770881203456149,-0.10454678761107306,-0.6385176523990371,1.713313563496106,-1.8119761605365932
1.3123767505120008,2.1679009429458476,-0.22989888022316396,-1.100386541341318,-0.9227730696558063,0.2539596607247454,-0.05651812185602343,0.10986368566685663
-0.37382007540894446,0.5202474542764127,-2.236820790649372,-1.5398035752701493,0.9803526275061705,-1.762419353254241,1.2537845361760722,0.6598361407111634
0.4774283260819241,0.7628212727487979,0.5828948063448057,1.7362065815840655,0.9343231464764722,-0.07126715662210231,-0.44491661990920855,0.9340457271310432
0.12122790180161494,0.326156446200867,-0.6749411102972618,-2.361198778151409,-1.4818774531454801,0.32286478072552816,0.6867737797220171,-1.1830303562410782
2.1504400201113545,0.4450816243739052,-0.47584396718196925,0.5427671757115509,0.5521531853299878,-0.1893875429419635,-1.3114034558397714,1.441959615962786
-0.945735137969085,0.08940741487207929,-0.38400182140064903,0.37335655462823064,-0.7143193430629626,0.8173340256939141,0.28411371588014583,-0.23870556002632226
-1.050272414347006,0.39511749515899425,0.9497367037726602,-0.2078143675382299,0.6937661892887567,-1.1155187000854292,-0.04670871671202584,1.4079661809202795
-0.011439221604139292,0.1592037933228404,-0.6372763902663073,-0.5784996626450083,-1.7749311714087441,-0.28970945132110804,-1.674496776193368,0.6415844486334612
-0.5121182352693369,-1.790364667641578,0.4872525060678971,0.24352164339598326,1.4545546733101906,0.197033956287711,0.5659338485486326,0.9943665270176599
-0.9505632172321095,1.4256623918681839,-0.9235003304283321,-2.5415503029763955,-0.21283171466307274,0.013584202234287066,-0.17419225254359003,1.1884950876073859
0.771740242663243,0.006999042694320032,-1.577358396693062,-0.8824722396749541,0.39543190925168453,1.0546091610079267,1.8267878586300463,0.30456962941315435
-0.8782196323367698,2.540122089974293,-1.2431140447920817,-0.49975185134899275,0.7921538899323342,0.2878698312589323,-0.7452068449979545,0.8883968309145438
-0.10499349253099437,-0.044905710768346575,1.7642311340268106,0.5488761684967073,-0.9592773665482919,1.5744229216696142,1.3455500391435133,-0.4249429098300525
-0.017402030343114085,1.4939743984499942,-0.6944828518068956,-0.3731328922498683,1.199165335532815,-1.585507506165563,0.6281989595945904,-2.0669982725573637
-0.3859192327617532,-0.6963068271950457,-0.5986453424430729,-0.2693190152277164,-1.3240714507566211,0.35768445392107073,-0.0803783329481635,1.583289448195247
0.4582223647095924,-0.4734621811783314,-0.7391737463596944,-0.10341591675122551,-0.2213548410334641,-0.5502512621709038,-0.7592284392093293,-1.8127827557928835
0.5152417873294413,-0.6996923044125131,-0.369406142910373,1.0302283410208635,-0.10196218574045343,0.5328706484301744,-0.10439868132059134,-0.9034601390965532
-0.32106738283635544,-0.38563846726953954,-0.06073237194019807,1.4121814257411152,0.9985890187247152,-0.5303704656287395,0.6481716823988896,-0.3452041109945981
-0.23344547560142068,2.2627277011048994,-0.4420139190449467,-0.20131564009312125,2.3441058966658153,-0.3598186948425765,0.8862835952260193,-0.4713185059895826
1.3394615186892112,1.7274535588635447,1.514112787151199,-1.0207710924939457,-0.0474546602858137,0.7998232735870829,-1.3058890946779989,0.9895486908777715
0.026879315994713503,0.5863569086472429,1.2512608926190247,0.5552095505478881,-0.8827574033322804,0.8284034766696082,0.1013552342890741,0.423363699153522
-1.4216709023048786,-1.1300576190222527,-0.12304221306148423,0.1063351889372273,0.13817193249351445,1.0176103728425878,0.238664464542201,-0.874064902543042
0.2245600292392796,-0.8749270891841742,0.2898606357881172,-0.7817136780496629,-1.4593822546509336,0.20175491047200775,-0.9257113076750899,1.5497584480297062
0.268357271514238,0.5003102961070635,-0.1433590175938823,-0.6865675615522786,2.101916751082995,0.9746531692267725,0.6117489678432112,-0.6789529199014539
1.004741490776072,-0.035776961365896476,1.4418989022913935,1.219703030240285,0.6493107156539542,-0.9226982611213203,0.4513874069083664,1.145584736803148
0.8002810424784752,-0.16197823253436502,-0.09359407093369243,-0.784876310998612,1.4754368016241566,0.021229267309458098,-1.0166542787536441,0.132737830008951
-0.7934944767823724,-0.06367555806679101,-2.5889071294514903,-1.1682372479598329,0.2874406725827658,1.051999269523846,-0.5294493612173301,-0.42311873566143693
-0.7471056607548999,-1.2394708600394468,-1.2135088473670739,-0.7481822587412295,0.9500374145393405,1.0132163932188971,0.24479907978720702,0.9425654708654096
0.23513909297261015,0.42405727181325154,-0.5070011473221908,2.3511381884481706,-0.2251451503725805,0.5121517888492015,0.13200468973590102,0.8912150725077034
-0.97912965902212,-0.47243002963374753,0.4942387397943305,0.005685460820670519,0.6407533830736747,0.02732567083217481,0.8016849796475206,-0.3372771614135057
0.23595392116212635,0.6741589126690026,-0.2456474620709512,-1.146672134372465,0.7010434989364818,-0.4553289724671372,-0.09263796653909004,1.1617425208701737
0.09813355587302296,0.4863988530698819,-0.2674119429856873,-0.38344887994281623,-0.03287322185932326,0.05346272878096154,1.7333365490101182,0.6917378911426116
-0.13600190426451567,2.0227844409816305,-0.02760633296758761,0.20445104408169826,0.06294903102039537,-0.7305883907966552,-0.2972806170602042,0.6561638738905897
-0.2556128184528313,0.46141594680258274,1.3275322458439336,1.121993484195972,0.9346546157722752,0.9465832937879612,0.883548887146661,-0.48365952973609067
-0.582852790419197,-0.7741341103326898,0.7634864094239804,0.07906173631081329,-0.07142382160624827,0.4174825898375913,1.015738043701032,-1.2576572050454553
0.6568219120861115,0.10207777231210372,1.5426009114864798,-1.2047796747543442,0.5068270251272222,-1.264679704079757,-0.37265957543916806,-0.3667100568261653
0.23951955555076535,0.8876365507022368,-0.33387207260765456,0.304412679150621,0.6428992084994238,-0.22343551151006602,0.2677463015665918,0.6602584142126121
-0.849226729408987,-1.6706409135467988,-1.126597375718262,1.235270418410741,0.5006874666174377,1.3478917815231146,-1.049936170440023,0.5006318859458034
-0.02214410073137883,1.0998885457149612,0.5922616867399488,-0.775225550702294,1.3559415391473335,1.5092490782488395,1.9761815150032893,-0.579178151933144
-0.4956477468288556,0.16409150017840804,1.5541194920908252,1.010881734525837,-1.3488004834484213,-0.21253726444565502,0.66225207876161,0.04571620014058283
0.21445443072562034,-0.27431062900685893,0.8117011152443754,1.8201114600511483,0.9940069761243147,-1.0424433772839892,-0.47683365376128434,-1.1614493189770518
0.8530708800207927,-0.45636254865243975,-0.5202718836411305,-1.4837371307599265,1.1251445797385748,0.18626161068804095,-0.6103113083569753,0.20258786048960611
-0.2849900650784449,-0.9827713045782818,-0.9035608663623761,0.08106129676746221,0.5086732859037219,0.2444056725581572,-0.2298807429812235,0.06805304056269511
-0.3998159246095316,-0.012986488324390666,1.173911220468459,1.051910738974105,-1.354994434951547,-0.2929431095564799,-1.2109789304465306,-0.8274724154485226
-0.36593413572693767,0.45546026615014784,0.022196579792304057,-0.3009866826493583,0.3446105030279146,-0.6072909493997972,0.7263340551026208,-0.07463408905117593
0.7713560018942185,0.326861199194561,0.42318679232590556,0.7148753319076621,-1.167246972344253,0.6375352127432619,-0.3513281810547121,-0.9898727864403017
0.003166291115799206,2.3723909982518845,-0.4654108207251322,1.293976029233205,-0.3040056649754853,0.688757721108957,-0.9335186046890951,-0.1975462798899858
0.2211150463470825,-0.7173229674731161,-0.24871000851866792,0.08860766666404116,1.1581352306543706,0.5283912126200481,0.3568026144096617,0.8379502995772313
0.645647722975623,0.7946139967605984,-0.05987171653599254,-0.18762853152308656,0.18496804422423335,0.28041393503585504,0.42698332564204355,0.6823517734578654
-0.8747783404805818,-0.4866632624414611,0.12077248396617069,0.21726037592737302,0.32956947237871415,0.08645564414488419,-1.883354384278098,0.9147758481595192
0.07170484070413839,0.3946975233480256,0.686228913317823,-0.38267075495925956,-0.7820237491180199,-0.19769686331487543,-1.2739991598161107,1.1374287193792636
-1.2616972715687498,0.006664082855458236,0.3916289350636108,0.9245183160788769,-0.4695378516358747,-1.0168395053386716,0.11181903535964954,0.3572969110497842
0.6829884516223149,0.37089717470580236,-0.10936525734998549,-0.3546636662453899,-0.06934467119484077,0.2093184091716645,-1.3180641729035185,-0.6629822169365248
1.1053397748291784,-0.29685797111079265,1.3884987658000112,0.5013597558478216,-0.12775285420867988,2.6108731842105164,-0.02296643320843208,0.7092409427222609
0.8712214538931748,1.3455036613560165,0.43216371209467025,0.3240987552507752,-1.7560011268147042,-0.31726360570846845,0.5397269056120316,-0.28270557019559683
-1.4901056523473546,-0.4693181465193322,-0.17457575841890952,0.309674861946815,0.980056293913401,-1.0670774253961435,1.5333950707088329,0.8261812297593917
2.8764209405337726,0.359986794714741,-2.2195533652824544,1.1480070068929176,-1.0982154979606087,0.2129498231056105,0.8519067595852771,1.7709738339024894
0.1467463731147409,1.2724829873915309,1.7532617366309164,-0.887310519816128,-0.9470949255149328,1.0790376873188077,0.36318303503657406,3.232774183309038
-1.3230638580735392,1.323951025694077,0.5570524059296946,0.07382280963241433,0.5260133568997785,-0.31085077683388446,-0.1346166454858991,-0.13270672900355626
-0.47358218621808,-0.7492483005099979,-0.056358627185068344,0.3356044279348714,0.33591259755946556,0.6634556425211331,-0.4328938519188788,-1.1268228956779947
-0.6237275713819364,0.09911613211478751,2.2389149419652035,0.27994948774586287,-0.22776180394053114,-0.10137331911492228,0.1667800715043046,0.0716309042426507
-2.1347952283518956,0.7293733750253932,-1.5108916961800751,-0.20091345165026814,-0.764255497919259,-1.3580823582840331,-0.7231803467291451,-0.7328085493127767
1.5311272374224025,-1.543129866143542,-1.2093889684637613,-0.794438776753751,1.4399802861508226,0.7439557202887823,-1.4998877522470337,0.5965647800176648
1.106205570733528,0.5997603462208343,-0.14177282340528027,-0.3290799569524443,-1.7565883383203573,-1.9651145411467628,0.46964849795290786,-0.07195048113467974
1.299928923080031,-0.9870073173441779,0.6156978652673933,-0.8984740782805914,2.2594559327683794,-0.5909044263588715,-0.682665849598805,-0.18104099349956074
0.010779611341005054,-1.131522794618531,-0.5010943093991614,0.3834861956959805,-0.06859682068842143,-1.9434073465940276,-0.21150145048336286,-1.0976710017729583
0.17663208978465228,0.8880734844890896,0.6157934422894359,-1.0402039619939603,-1.2935840695792051,-0.6791961541455511,-0.008816383448321878,-0.24242939127579038
1.1256518115518328,0.5684825374647529,-0.3409557867317448,-1.594663761746476,1.307010093124164,1.095170241821451,-0.6504156294138981,0.49950845758537227
-1.6714846174783538,1.3342076735343547,-1.0835455106117957,0.0035168179408725984,0.8679428691572475,-0.766302739332957,-0.7251278199028469,1.1886470258976196
0.565584603207827,1.613570276022394,-0.9650034731869059,-0.21763370088352102,0.3271017615194921,0.11131794294050701,1.030820073636319,0.23376780840221725
-0.9825943600905317,1.2807086686804912,0.532385124121885,0.11389164068358601,-0.21444971148667277,0.43015931409073793,1.4554908610274406,-0.8888393736693369
0.7592319014435819,-1.8131078354638304,0.4878163786767343,-0.26753990316245596,0.5967023170563165,-0.45088483136536783,-1.0202584935328893,0.7645745200939028
-0.961080606172408,0.5077275191012827,0.6750902423085917,0.035052357648466446,0.9314460041419411,0.10706404177422789,0.56148581327053,-0.13525250821552934
-0.596930765076948,0.01836856012274498,0.13702996104495396,-0.7796657096233605,0.15426428427740557,1.3974809192686632,-0.6413114650465911,-0.9114922487788245
-1.7426701136356306,0.022860261364504877,-1.0510932082076403,-1.2815265288080013,1.1380404083150975,0.05643718711409392,-1.4046692755760923,1.331404689636093
0.8138360867320966,-0.7647010403998306,-0.00410265747595296,1.1757372099420205,-0.4054989735497761,-0.5173569512631756,1.9182773629261212,2.4632107303007147
-1.3924962723947074,-0.5471889135908047,0.698979008371392,-0.7046317464381512,-1.1052776251913248,-0.26858629458903654,0.6673161838701986,1.7598930711929968
-0.7792181475769501,0.5353487227333614,1.495960827286043,1.018714773367886,0.8882809042529778,-0.8798515476895873,0.028429937076925836,0.005347006873296929
-0.022499783861041872,0.5796564750164713,-0.1059614473789696,-0.5746309630986468,0.6601485023213736,-1.812780928611495,0.7113893228811248,-1.0881684536077763
1.4461805552090492,0.3933278982754615,-0.5136251720020637,0.42235272939671936,-0.4952398638265683,-0.5957839073591105,0.43964603169519845,0.020869116197672583
0.048634996459949405,-0.5387631214168155,-1.436888822351565,2.7948128346599934,-0.6019955521057159,-1.3082114227917487,-0.43068041038628807,0.3707075572772982
-0.03814221015069554,0.2908679372851847,0.3110851763939444,1.5621573812939873,-0.5950525669021377,-0.6639129265206621,0.7185046926606301,-0.2631765231013972
-0.4489723061011278,-1.1723518682671832,-0.841787373537558,0.5700130930413148,-0.5353681573745712,1.1677400613284734,0.026400861237719467,-1.00429874183129
0.3142852635563766,-1.1156303492226105,-1.16579562490491,1.2762706946862878,-0.26616488896735696,1.2363730822982306,0.7895827190645666,1.0246536147626557
1.1038869668737807,0.30606149985313585,0.6500114101507459,0.615580548556496,0.17567353786336395,0.7456113032759341,-1.74553952865218,1.158154502548194
-0.2171418227226298,-0.17615609260173953,2.088681076506325,0.18209817301095202,-0.5373623761972363,-1.5925593616819635,1.2102485095972586,-1.6358309736148544
-0.3237912724123766,1.8552453300187952,0.5283260788767791,2.1186947718166933,-0.7409793830372569,-1.166156260766003,0.8811544217670935,-0.7701910304428955
-2.1551737416498726,0.556318296856251,-0.08866461360863244,0.3605541321706967,-0.14186608109114224,-0.00882782192631468,0.859410462514293,2.2750523422330824
-0.04077230923500203,-2.114370560552247,0.014439071461954204,-0.03116467312253232,0.6359248669302788,-0.6728508418567368,-0.28900987487734353,2.9735698689983363
0.6205544368198442,0.4549395148284116,-1.0316482160860028,0.9543224004906522,-0.42904736801718946,-0.025404582533301242,-0.29877670279094676,0.2947229145101676
1.1501818759246032,0.06448657272509993,-1.006119524261122,-0.6742097632863499,0.8805571770333751,-0.15151042902536652,0.006521328514314537,0.13946168359024425
-0.8103707341756942,-3.6008643295333327,-1.2586402511345538,-0.2665404077770639,-1.465756680037117,-1.4908130606476808,-1.1833174446024908,-0.46559316202820344
-1.4806438371655308,0.9714086227774746,-0.03174530866403561,-0.7099709187990713,0.3929888806928487,0.5734107762946673,0.042217264871963825,-0.23655048274463727
-0.3584943238426807,2.1194403857902446,-0.9313247546735398,-0.04601141183330221,-0.33765870847102863,-0.23841613845713913,1.199934910638855,0.6787118012869894
-0.6777882974985528,1.3372611706956594,-0.11649113394724633,-0.07035506102638268,0.9806572671247671,-0.5858410153449556,1.9312439868000209,-1.8406245237229895
-0.7885376440697107,-0.7753775864636323,0.13374238372480926,-0.09271312523885336,-1.065632311717211,0.7205951746789567,-0.6007959469686902,-0.16566102663697005
-0.8035437527316022,0.803753001995853,-0.4213679858557659,1.6163795923757995,0.7922050308209059,0.7613470728834292,0.5717623895276909,0.41799035186887556
-1.1448030315318518,0.4185081786957432,0.4867268333202863,0.43287318090401267,-0.5484685226516246,-2.421641306900682,0.08191248350556793,2.0854494983997762
-0.16853898286376615,-0.2594853230814218,1.5493852858485038,-0.24311572541896842,-0.04696559506419238,0.2260718451713853,-0.580536659622892,-0.8111429099905986
-0.9228944741696881,-0.8083652314170553,1.3743574178145461,0.16558585621304533,-1.9823544014020307,0.20139538745314403,0.09812629069656073,-0.3392990022832706
-0.6086442638697737,0.25378422534508577,1.4722191578664592,-1.2701963316633713,0.9076943660444715,-0.05501442909825406,1.1798432129079155,1.4577598648324592
1.1260203591936961,0.23738829301804573,-0.7307623832165695,-0.466007496067743,0.9087963539114969,-0.25552107315817524,0.2558880343391008,-1.0342047574342863
-0.4085008493159492,1.729189348010222,0.36208500918930064,-0.30135564300876544,-0.6570096401533893,1.9126024956207646,0.963755636912262,0.9955731452337411
1.2220648653653021,-1.4587549008512146,-0.20012768672052877,0.6510599274781933,-0.8008587782503039,-1.02609720434124,-0.9447015276109584,0.0016394367470084087
0.3833865412092622,-1.300512965451307,0.31079908779987225,-0.23811598624312993,1.769356135102492,0.41585466061439025,0.350428629756968,-0.549825888452859
-0.9808343183827393,-1.122951851046799,0.48530387954276133,-0.10079837432823018,2.8521425059370813,-0.32467523434686796,2.507726500147306,-0.3144077606787554
-0.008767305840063364,0.9487470260156582,-1.3863491032352773,-0.6253746755224747,-1.2902171935251094,-1.3407075108300819,0.3427929475786981,-0.19523722938409788
-2.5569063952471267,-1.7845999116036566,2.233295251521637,-0.5299440098355062,1.387192679941094,-0.2869147556699325,0.4897692366006168,-0.9790403141167157
-0.4030829747286359,-0.45261802359022046,0.7157004447424151,0.6663165903543222,0.24667556945799324,-0.7276641884909865,0.6027184673555775,-0.08421916838823558
1.0614382342637831,-0.07811977135782906,-1.0494041532861949,1.9204287989330466,0.18214194110467397,-0.3900179887825905,-1.3669194716723778,0.1355775864790726
-0.19301193383508575,-0.5130430959719227,-0.6375299992550008,1.1069389404790244,-1.1097499432763964,0.3970924694611236,-1.0933663402970006,-0.9585373620333522
0.936488271986083,-1.399978859708731,-0.24815996328120107,-0.13689739791821387,1.2355266465497927,1.4432257693703279,-0.7030972131756316,0.4741054185580931
-0.7097152748503636,0.21972965908978134,0.5487440781863118,-1.7048270529978824,2.075214974230807,-0.2019231909466489,-0.4582233304158818,-0.4173260957977751
0.33017423060339157,0.5521257938419115,-0.2794949197550514,0.14195664154461066,1.0757674005081541,1.2675647257430154,-0.10863374720430335,-0.16800036663240994
0.04634401614333853,0.7229931552864045,-2.030034525132909,-0.7785833212128408,0.22614367363071422,-0.4271091183646041,-0.4311465113233874,0.21324741492164825
-0.2675125558795409,-0.8741140295938411,-1.1205157744373009,-0.2764580103526767,-0.9827338036800299,0.5606539443004118,0.7532288969004096,0.9384672529284224
0.7373787106895079,-1.6833156103385598,0.11271897688365935,-0.002788739431406582,0.5843006703486091,0.11788226005865483,0.43409609916469155,0.17777510384395234
0.3871844925758956,-0.27954899242559433,-1.498051835661699,2.44418932595826,1.0147347388514933,0.10216283392994446,-0.866922561017586,2.1331657640885244
1.3753432354773,-1.677933304462909,0.6237506565870643,0.7221690291960893,-0.013857866632288583,0.28957832976313214,-0.7268957772109582,-1.1768685804425127
0.19527699786648722,0.2814223585898398,-0.9969894231966367,-1.0428278583342077,-0.6142436562092726,-1.817313864860282,1.3938030517662119,-1.9526671229839234
1.0884610488967517,-0.6883485202317853,-1.065896191582829,-0.8673710338310248,0.6085188722285158,-0.680698864920249,-0.6751423561097301,1.7140575840317958
1.134580210989222,-0.7752440427226716,0.688586519805954,0.6364822520441596,1.8238038191321835,0.36280161406583555,0.8424570362473215,-0.09392211683096566
0.800659515147961,0.6140084416470567,-1.753448721720501,0.7830340167602807,-0.3470262028492183,-0.19291563018584823,-1.061961179942227,-0.8822626132369574
-0.2705585079162737,-1.0700883140414856,0.11335494095542151,-0.9969103783875223,1.8097182560776996,1.3983299406521503,-0.011123785938324006,-0.4574730421805324
0.63786112049585,0.8147042838158064,0.19599746022944756,0.26432091747723946,-1.5399239511018599,0.4589269919057938,-0.31216042772920494,0.3141124333803808
0.568095688312594,-0.34986764942416015,0.08472993975853402,1.0005349830163552,0.5364286443328552,-0.32267572905623104,-0.16341279877592998,-0.8368763474551059
0.5732862472436034,-1.0176451463521392,0.49569268885767703,-0.3238099069269748,-0.8565783445091627,-0.6983547102599389,-0.04454231321291117,-0.5628708730328722
-1.2493488422512993,-1.560058533914372,0.16990277328738007,0.16623220860153873,-0.5045422804274979,-0.1516944685817497,0.11767001173015723,-0.671385616961655
-0.36101076749967353,-1.8600002765452306,-1.0049473716409731,-0.45676826386686153,0.33568535738519034,-1.5944433637236524,-0.3384150050308923,-1.54001626297055
-1.1524630078041391,-0.3007596250544149,-0.9417787860176595,0.10702895528763218,0.09729403478387043,0.3117861957702841,0.8199651398566495,0.6721470628129954
-1.1049372286075172,-0.660810132568195,0.8058703014217732,2.3471979557148073,-1.4340739437077554,-0.753365653357028,1.5839302213778657,-0.44010884651447113
-0.4237860435832055,-0.6229991629566283,1.3578765527365917,0.8553508705763665,-0.30078608123855,0.6273391372184483,0.1637178882701028,-0.9157662782662752
-0.48332384481097523,2.035677537075753,-0.9799945090073231,1.580776355045258,-0.9061469225535417,-0.004766463698709204,-0.1477795395388717,-0.0436221644896642
0.6994144836276703,0.3730600845531117,-1.2465059142189365,-0.2676921995953755,1.1787008533982022,0.5166844574641052,0.009766337091190075,0.3751289228695444
0.8394676431000077,-0.7459646295530636,0.13223888116516982,-0.007862180254266792,1.2331903232414936,0.17395302784409367,-0.7550297473904358,0.9972395127775066
-1.2044667035629466,0.07320485186280094,0.07696300591607856,-0.858359239910195,-0.5174015023157219,-0.7049017973959953,-0.8712336293369047,1.0651557853561748
0.2542110969513022,-0.3555654062202611,1.624721184210238,0.06720022231563655,-0.6114441366233708,0.0956619385177094,-0.22946872942528737,1.8882681911198627
-0.444459956115453,0.16380965419396046,0.1588795085347093,-1.8659602429678726,1.0384111943542653,-0.9989723188272324,-1.1517545403101201,1.3959723901017043
-0.3939224190220888,-0.3344310238211094,0.7520331834780338,1.754015846396563,-1.4964162066749593,0.9171178475985389,0.5396442617984628,-0.35560411844537015
-0.3026055058880332,-0.3805205273466156,1.18322768688439,-0.8161220805937566,-0.4156753492793631,-1.4020253228113984,-0.9483029298074762,0.5540890305329249
-1.0260328579842053,-0.26837864271180856,0.22883151487294062,-0.7082010954032549,1.5370218110297569,-1.8044869397476055,-2.525761525413868,1.8533737176286982
-0.8881731644926962,-0.7409060661155406,0.6301440365966693,-0.1418292661067095,0.5264364049039558,0.29171588224316847,0.103098899312455,0.6345999665829525
0.890526994584872,-0.35514552832919016,-0.03595303212525573,-0.6722092333162561,-1.3351791572764335,-0.5012717987440799,0.7297598122780579,0.7127767369624594
0.06290840958195745,1.1026037622995277,-1.7653823578092458,-0.24665232508765497,-0.1271919996507278,-1.2111729087646341,1.0891201800164472,-0.9439542302475586
-1.532753515785049,-0.9780490083752563,0.8103036377378218,1.7398511426893943,0.241069716310234,0.8110677612901619,0.9767305313073766,-0.8870997109404677
1.623023648192588,1.2339382802285739,0.5615806062398143,0.8037892592969299,0.15090909947393893,1.1474628482846179,1.934601092735117,1.011316458515416
-2.4321385060413188,-0.27118052698245393,0.7317576618851582,0.47211840855624704,-1.3490328465130503,-0.628733440583469,0.920703405449796,-0.2107902113651423
-0.8852370946717146,-0.14475526074056944,-0.5891651903611096,-0.09842145896366811,0.4518869565689741,-1.6133081091387191,0.8911636442032721,-1.5665709891059467
0.9774677590245532,-1.1460281819113558,-0.5190420985493088,0.8137150891639927,-1.6110182212849782,-0.47101983890880633,2.106845980002787,0.37160195334186374
-1.7563779758877924,-0.7807772013141364,-0.8894261664376307,-0.4411166004560138,0.5331957917569929,-1.217139884253531,0.45284304282866916,-1.5753805443973814
0.6343828830088182,-0.5856450634266325,-0.43530994343120455,2.4245475250950936,-0.47775452815110614,0.17460214802578766,-0.545835535957683,0.0041792150672198556
2.09679494360014,-1.5040581394229464,1.2058415325368412,0.356941981030853,-0.9754876103791186,-0.2912082709027677,0.880387570601164,0.23031844360116294
0.6991206793616593,-0.6547834248386368,0.5420455538924682,0.8923034339213999,-0.3903471511735919,0.37504470328541806,0.41817265886924015,-0.5112816510238822
-0.8559425107426286,-0.39281036675812137,-1.1942758666331543,-0.8813602056999972,-0.8910707508626702,0.1991799003988817,1.1342091246616244,1.2821880658282863
-0.7485240593719181,-0.07225008864203938,-2.404412159957284,0.19058145672722088,-0.669105243480737,-0.7795876746087202,0.7641941759832902,-0.46901794804069186
-1.1897667982746019,-0.9103256583046009,0.5779990125156225,1.2504140675216198,0.7599464660180137,-0.7665449245628722,-0.04219636751186509,-0.3599704663397168
-0.9281664193710861,-0.3047656206020466,1.5621207555213679,1.6932104971502098,0.32187800824764845,1.7492263613673475,0.1855116939764142,-1.4923607593757588
0.09294015798868811,-1.3449204057259294,1.4948642558092033,-0.5773693708169866,0.1664736704923363,0.8688029200967576,-1.213638688267588,0.04541012597393025
-1.5912391417488467,0.8552961797758921,0.5062270740141713,0.4750891385724356,-0.728050577069773,-0.09644760371749846,-0.9903512457521447,-0.04396342315753636
1.5145642606801344,0.10896738848121389,-1.432891696194655,0.3930730506211885,1.3686773715254652,-0.9860113888761382,0.4398327207607016,0.6165956244624664
1.0687030450420416,-0.03059619798286375,1.7456166094609586,0.8464030230422495,-0.5029752432247143,0.29113494406993523,0.0557522023681366,1.4086012546510858
2.0195394566190736,-0.1051935921653669,-0.5502146090282405,-0.653786390018517,-1.8686419481338086,0.6512536180003708,0.4560878869156704,-0.4864092194830698
0.3192904808672068,0.0500162523828375,-0.851392321326191,0.20257534622975898,-0.2824418893126225,-0.5371307338895811,0.6112149833757758,0.9149726419137703
0.46615522824676797,0.4301862879745175,0.14900158285417994,0.7492040176543985,0.7172031093388808,0.028165027641389333,0.12940430655502091,0.03787619242653493
0.20434624203629095,0.22006700653073435,-0.5944957015861135,-0.5431644013983743,1.3229553591860324,-0.7846925745681375,0.9774292884999386,-0.23992671341894312
0.2119049153291669,-0.7396142631401367,0.7340913034141119,-0.6048595418457865,-2.4986652257081206,1.1913386490905853,0.33034736222185673,1.5324553431268608
1.0082193269805115,0.863664270096515,-0.19467981659634828,-0.6603171865506151,2.1995177578657965,0.14276267084525823,-0.2507870186413952,0.9562387865757762
-1.33273210777354,0.14608150260170596,-0.048065676183695345,-0.7460296889152231,1.3501677450525449,1.131359809047216,-1.6204374496919116,-0.7145830120608757
-0.017481395296999776,0.920359374710825,0.48743767298550694,-0.3663927329066496,-0.3769666569664636,0.5428128149115821,2.626254230892194,-0.4118654502169606
0.8496634301406122,0.4729326685285612,1.0005253401523362,-0.9716246017165976,-2.4484319098891354,0.4985055490181927,0.2218835426976883,0.48111833708224067
-0.5545608300700877,0.7324827305130069,-1.4463427775287134,1.398802777852729,0.1067281123259605,-0.6740050334184678,-0.48135184917154195,0.2893832395822491
-1.5206027767228838,-0.9570566119980353,-0.02640298805236521,-0.28491846461383263,0.5584402992831585,0.49790691978164064,1.4712433819542767,-0.5088167303165351
0.013330110041428048,2.6395026836853095,-0.21070074276492856,0.4617098543164637,0.7282485235902089,0.4418759912529533,1.0183402254741105,-0.4045947289188232
1.1715913590646982,-0.019285348472560526,0.20718323979892306,-0.434290197991592,-0.2921490456409443,-0.19195622341486968,1.3375037627450432,1.336276416641669
0.6432826175566032,-0.1662182292205482,1.000055628037673,-0.47181990358808845,-0.4034709317020741,-0.6527072722765315,-0.2230869844690763,-0.14589991258739385
-1.0817062624786054,0.1897487838474539,-0.10842686804485789,0.8337375036000838,-1.5950227308315599,0.42166255677377423,1.1637264208119622,0.3507712089537571
-0.4527517710598474,0.2682161372776644,0.5035388647418162,0.7569430928909494,-0.596012987609432,-2.4501232945439364,-0.6978543560700445,-0.5126246188624611
-0.6851173682740417,0.888734542654457,0.7964482320237615,1.4212531690611478,-0.2821144118003525,-1.4777776824486564,0.1451012514172374,-1.927526543145037
0.7038661612333947,1.2155813677401561,-0.29004453195026186,1.213513787582418,0.6546632899496756,0.850783470165262,1.0400411849584579,-0.20257169758311908
-0.3123198372937243,-0.5235363631167972,-0.879884046910166,-1.09398923320327,-0.389211412723255,-0.10173466062631836,1.244006597396089,0.9301621377028066
1.390112132632739,0.255333745342175,-0.5611814172592177,0.015757826072263163,-0.16574020257972621,1.284172336113346,1.1190007550683005,0.34180326252557536
0.13816456610193725,0.938393275772297,0.73227980670756,-0.1254485309719205,-1.5078832017429629,1.285040282940702,0.24065084370554146,1.9850428738404193
2.5200489610875754,-0.22770665836047868,-0.26307164665687494,0.1787865819521067,-1.0079871338555897,0.6092628653543585,0.8871318023624738,-1.8576181013722513
-0.8206667827389463,0.8098559941817819,-0.13635787675105177,-0.7280134193317785,-0.4219723852369971,-0.3256159164169808,0.8134053053118269,-1.2335052381687153
0.3971219867279718,-0.42638726660589316,-1.684754175788605,-0.07095516212038773,0.8134026965806791,-1.137508280152466,0.5162801688529992,1.4780964678953505
-0.6953320550981463,-0.4311823842234828,0.910876320572806,-0.9247735194246752,-0.9199225277387119,-0.502745723015617,0.5633258109148511,-0.038521118792587086
-0.7494949663099428,-0.3700138312920547,0.8590352845055627,-0.5558621096123106,0.7149325251143167,0.13665192048792676,-0.664795230123018,0.4170818236411053
-1.2701529744816895,0.8301984333984072,-0.7720828672475092,-1.6023517645743928,-0.20762540321925477,0.3921357938460259,0.12570484837133306,0.009173443335878387
-0.824433082936148,-1.258428897892478,0.1524151706188813,0.5855686918244017,-0.10126375026131439,-1.223662690832173,-1.7307846003730984,0.7767435765640878
-1.3795386955105262,1.3139140098219937,0.9526474886893248,-1.1245790108960898,-0.39291674923423797,1.240012577190907,0.2313107552558885,-0.8790781630989871
0.3421248247437939,-0.6868649819274786,-1.0041582569146157,-1.4485898326725322,-1.6641632031981255,0.9739709600365313,-0.20581560462458942,1.4607904137062255
-1.132381875288505,0.31870147812818095,0.28003015857645136,0.8904564504311425,-2.507082746114664,-1.0168070500518647,0.29175478004757055,0.12118295781814019
0.03869705077779722,-1.1364455019615853,-0.7797495925078932,1.7952215090525543,-0.6408825185448608,1.2471191665486985,-0.8695597955469313,-0.07304868687327279
0.9472659051567375,1.0122320225594121,-0.1446846002666879,-1.4575095642213942,-2.0406946238266888,0.21859253305958262,0.536350625401309,-0.8837048292860481
1.1084418082672416,0.4390734103181052,0.6532363941473585,-0.11195937596367839,-0.7343334518234887,0.5443107772084425,0.9442180306814433,0.043081681852095835
0.5039882981600969,-0.0323229523188416,0.3841008819180918,-1.0341278531249682,0.420297029071428,1.417677066394799,-1.7246338084177293,0.14600450262784181
-1.130037725219998,-0.6991379571730184,-0.8689823910237404,0.4294758932151318,0.17669288273667214,-1.1315709259058488,1.0694267827548707,-0.5974776043309404
-0.7672822267803988,0.6194542200975028,0.7224855306264771,0.1064208150982319,1.4195708042184483,0.4269999937989717,0.48490116484475926,0.8648570587217229
0.2278401598375367,-0.6061222429427057,-1.7658076491719767,-1.4171088843819473,-0.2578933339502546,-1.1432526960931977,-0.4513337230830503,1.4899468868292793
-0.3324177106807736,-1.2389925058601203,-0.43813357076085113,-0.5324232101898099,-0.5292328751340533,0.6052063891554545,1.5890997445668935,-1.85867626329101
1.6972002535060615,-0.06176360161921197,0.8794689129081737,0.9516308451643415,-0.3853991989423425,1.2141308857138549,-1.8396328116424414,0.10781159352050958
0.18970247861974432,1.3405513044757837,-0.9503456354181272,1.7837538682466758,1.4521124863908987,-1.1240469058574956,-1.2391197785294688,1.1786539011134998
0.5313522088711037,-0.5463391029197392,-0.6264995989936456,1.7458472068805353,-0.2006948330438974,-0.8269897788786259,0.2796325294324672,-0.7550180686764358
-0.00801435008446008,1.0414602890565219,1.402492096192592,-0.1281489289356498,0.2754767567820736,-1.481412668625554,1.5334304889511463,0.7135284081714746
0.9673142167371104,-0.0746207653944403,-1.091561516300715,0.5421587115200747,-0.3775951856194762,-1.3715167574623266,-0.456734849548004,0.015914614805563845
-1.7890418430521904,-0.13801182524960554,0.9848535431545071,2.468649252130075,0.9400454755244271,-0.7802188492381182,0.20873056338141205,-0.4452804916392475
0.06684058540896463,1.2717155422302044,0.7705452725226055,1.2523838164390617,0.5214829256761297,-0.4614495938118898,-1.5642831693880241,0.3341585099709048
-0.6969050377350597,0.6055963089886894,-0.1867473806727435,1.379923285914238,0.2632712647903965,-0.8210682596854426,0.11569082280001963,0.08730315435894437
0.2048244560799471,2.7238433546029484,3.804258473523071,0.4393899674077236,1.7243945870168753,-0.803973778427178,0.19310675909754185,-0.7926535884458017
0.7015594088559972,0.46175398357584885,0.04330388548590086,-1.8274137894763527,-0.05254012694079772,0.5525440755043938,0.6783869637484575,-0.10245965255561973
-0.00564213607772729,0.269502906764427,-0.3827613133353878,0.24326367429451642,-0.3852633798775528,-1.2378693363413344,-1.0124362924565313,-0.6572914265619854
1.4848070911538525,-0.057833409990739354,-0.8637754393877053,-0.1344777895249751,-0.28999836975433696,-1.5834476586319721,-0.15319638377211955,-0.46279305230551937
-0.4736366970544639,1.3796526095849277,0.9317643232267449,1.1338767005769723,-3.4111236615954224,-0.322742330311617,-1.1477247522207443,-0.35131985005323546
1.9273422862131593,-0.27065667981373626,0.1066326978996699,0.6194838296946557,0.95212356242085,-0.21253593263032025,0.09949956104570973,0.11361974590180636
-1.995433791853744,1.8263428341047818,0.3948372229384775,-0.597311552420372,1.1648357913405163,0.7614892904236005,1.0349580247541967,2.6684286414079517
0.7922937920640706,0.7896842809503872,-0.18348082092216075,-1.125082639926564,1.751489413835878,-0.24332212047161839,-0.03203017209665643,-1.0285226492761885
0.9756472994425044,-0.2706159497860841,0.8010662066762094,-0.14389496053658604,-1.3008480667943418,-0.40468517342017274,2.0855660267320433,1.802449001014525
0.8419184135515114,-0.1567526202137808,1.0893489335615913,0.012524767170010966,-1.2656304460057066,-0.23694991928256637,0.007778969605291091,-1.742863958744424
1.0366835744591267,-0.7055318732960334,1.8647692950286407,0.581252250086812,0.940185329274861,-0.1467370118049422,-1.2081312220492935,-0.6396393044620293
-1.3448098873633854,0.7704603391741692,1.0024787583590022,0.6267728366741419,0.929670152409667,-0.5544457687701222,-0.6063945890780597,-0.11829860145755246
0.0602379082918804,-1.1704137130871204,1.0228370353803036,-0.1258382413846979,-0.40588061667769965,-1.3824772973432562,-1.435061110493078,0.2718388315048515
-1.1881866904346992,-3.158648138056001,-0.5442038633905582,-0.911454673704857,-0.2727036252336091,0.41388727339683756,0.6289243095714036,0.5697932772831031
0.8541157260519785,-0.1610291340760079,0.14501775105676185,0.9228433026730377,0.5225404699099193,1.7480150203094016,-0.01587633225742051,2.3601794114857504
0.22173811278264324,1.2924495607849082,0.6294056768640593,-2.0719072735132587,1.3828334976909082,-0.9305701440689429,1.0899253347676674,0.3555574016435883
-0.8580793389719434,-0.4218584628378787,-0.3235251430379921,-1.9166685824365322,1.4102967635271693,-0.4487820995690562,1.4272604473605408,-1.2537192804764248
0.508221555779066,-0.5524833803707156,-1.0205425141081712,1.8817335004989768,-1.18595248131402,-0.24590932927649153,-1.0657798893475696,0.9944262285763861
-0.4732062100516988,-0.21960214468064818,-0.826035841728411,-0.8686852785290812,-0.1100476903597893,-1.2395803984947167,-0.36037897155743415,0.48422989777750775
0.207256149264705,-1.4277921793032347,0.9704907433676457,0.8822779847826424,-1.4651631573202795,-0.36912569235509446,1.8758378493652983,-0.4363056034509718
-0.23601108571281004,1.1567326856967228,-0.5038581096818211,0.061343818571838744,-0.3877564905465334,0.5037431998241015,-1.092806222074812,0.650434302268801
1.690864915381597,-1.53938147528745,-0.84629222707328,0.051563114693760306,-1.639454191450414,1.1849092551357823,0.683682026635184,-1.0588258066580887
-0.10799962917033697,-0.926521699668958,-1.8538016415268281,0.048210181605358365,0.2364900631259688,-1.2583752777461223,-0.8538359084515993,-1.048862533291568
-0.5460590915509305,-1.6802822110418858,-1.7688485342530722,1.510482270844836,1.6434066286150082,3.168364219057809,0.709333397066911,-2.1358985550577816
-0.39270159830185686,0.28214536665108636,-0.6444767953936901,0.517377475848452,1.0618850893425493,-1.3424384852393336,1.5438080482474628,2.205265163661768
1.2155646119249408,0.15493858697571328,-0.940292617922932,0.38548377076818807,0.8507574665083821,0.8167345251741079,0.1514486764553955,-0.43965144980249604
-0.813732346319083,2.166547725886281,0.6210822657519032,-0.006808806134383423,0.30144809111443144,1.6272290357501584,0.7018481817786133,0.9043566360068833
-0.38290201235618,1.534527070927302,-1.1261610135222997,-0.790150541680959,1.895797868736257,0.281953706500517,0.5262767734728218,1.0960062474153314
-0.8260460827018721,0.6184227474055809,1.317836765725628,-0.5847128328433719,-1.1201900190419416,0.18999333957667494,-0.054787829505424754,0.38802692151699847
-0.26366042241293985,0.3735023574230725,1.7380810887248153,2.1486935928554467,-0.05618824572684662,0.4992634597831496,-1.7100383824078818,0.40584205270307805
0.32070368842876573,-0.246577407327639,-0.9356255592704094,0.5407426844655613,-0.30828294680233176,-0.9109794615769248,-0.28338442754839427,-2.015769673638626
0.4218283182016532,0.13961551968415148,-0.9160945370950395,1.3879719397325674,-1.3973236425831843,1.246461757855833,-0.06646247160737155,-1.27229395673368
-0.6788990416071765,-0.12045472592220313,1.417484002405527,-0.3537235510519164,1.5550794446362575,0.5563138996649781,-0.19880413699492142,1.3897877660424103
-0.048801324955431234,-0.4075074004939362,0.10462844858991664,-0.909632835929791,0.49014535395988024,0.9491602448747186,-1.4697178660874597,0.21259784146435573
-0.7358957481619679,1.302167462380876,0.7437840331410402,0.3374222770992161,0.7462371212081583,0.630376587107828,0.3342526539084029,0.7000260136342886
-0.8815686288416454,2.1108202121557724,0.371448002200589,-0.5622379001482433,0.9418291474987871,0.42545959111664444,-0.5349547795863584,0.2815124477012936
-1.2147416979345882,1.047905075378395,0.06411256941840773,-2.27285861191452,0.8674214761994619,-1.7811232104700017,-1.6703492438232144,0.7333273112259546
-0.14133833059759085,0.43475178838015544,0.6744020485605826,0.6623344511825278,0.19486190424587496,-0.25056131095839407,1.2178557553321168,-0.49770669986787996
0.5539468541569217,-0.766953787839592,0.1140539232913307,0.9003532010081349,-0.7904720136881087,0.277626879021177,-0.6073426064513949,0.8970264842691975
1.1343932591599473,0.4800188186368571,-0.6784871580122704,2.686788325898868,0.11804236098379786,1.8727539126314994,-1.6842189384125477,1.0880003148319124
-1.0543309642864356,-1.1740124347366405,-0.7440379094199614,0.939709536110639,0.5741904924306143,-1.136762494272971,1.102746638249211,-0.531173514587683
-0.4588574837732869,0.9147168731256853,0.6951259981187927,0.4627483591738142,0.4433467807711636,-1.4472682797297427,0.15161900549472035,0.3675222320545986
0.7999909124746815,-1.1646361697782797,0.7433640694632928,1.4705092290529813,-1.225861287941847,0.5421501486643104,-0.4483788594052388,0.6859375031511669
0.3096395696856754,-0.1899772739951011,-0.5815138700056943,1.300552724834921,0.39794354302528323,-1.3384790775603759,-1.4081269744068152,1.4367111780034354
-1.0048599909735199,-1.6006776276840065,1.461658107637401,-1.1546291507715625,0.9483743853749643,1.4930222779635267,-0.599622516878465,-0.22218116400187987
0.05235199575538084,0.46192232561125535,-0.15259872446874356,1.5549699196890265,1.1332944502795608,0.42784022269202077,-0.17790800944717722,-1.119323496372582
-1.561096318032193,-0.18834716080946093,0.14997833892725612,1.0685160057775294,-0.09610584122724944,1.5790499825889721,-2.033558786594396,0.415311097303232
1.0473956835605351,0.4171584683214342,0.12583634007827993,0.6490451743738302,-0.14234748056133095,-1.829613907433053,0.6671367588759043,1.2648616916637156
-1.3586632187971208,-0.4314063556452634,0.01071393516842303,-0.28515876266727586,0.5433562790678196,-2.142663852046086,0.04390103213674916,3.261992785274147
-1.1947594062768971,-0.7313459722526691,0.7112859839042946,0.6504875324740431,0.23566694496878784,2.7636395637650013,-1.2425853794477706,0.9218022585924645
-2.496171367740589,0.44881797589219474,0.4033227643889569,-0.9095981290820665,-0.08692631263884089,0.9192335271726311,0.783522077059799,0.3460471725118903
-0.20483121429324613,0.13245191547240817,1.0930898465280412,0.6638615963041795,0.14523173774311027,0.4629682231608298,0.3915330945151297,-0.242492748113355
-1.4355447297668447,-0.6350522279985239,0.06154935461271025,-0.09673814074951649,-0.3132017871503641,-0.4514146412472913,0.8813208363668149,1.2454704716441103
-1.378369463154493,0.12809214404581354,-0.07788699246585275,-0.24625225368956835,0.27990013643575445,-0.5363621899421289,-0.894311249306669,0.4476043344747284
1.069904155394673,0.03972055270122642,0.11348096475788148,1.8992357306840788,-1.1121104126958448,-0.27312544997640453,-0.6360664859755708,0.25497179192947705
2.8228967592415284,0.6873710727242529,0.2122747401509833,-2.088335284283164,1.581764066758418,-0.7191373471519295,-1.029859289490466,0.6083258387199095
-0.3658061749778964,-1.3367399023138895,-0.3823313941404327,0.610310419859726,-1.3819841800201071,0.9417871978518058,-0.3442830684780036,-0.7481705695487115
0.6106904237617431,-1.0534169309119246,0.21460276410722065,0.16428005475002602,0.04506980728557293,0.9898744761977017,-0.6982860889173826,0.9603857281444185
0.946313595447908,-1.6438095129435584,-0.36616676377902796,2.4508848808618344,0.5897261154672376,-2.025350211514881,-0.5597238255974057,-1.1048597676808296
1.1329428031150008,-0.07300406980481816,-1.3209811536489433,-0.6919438793154318,-0.43532936807361927,1.1292566624607518,-0.09951910250231287,-0.4531357080170601
-0.804775675561268,0.22006275383675405,0.4464716408187365,1.5148823661622899,0.9334099575512953,-0.7639869525241743,0.8856770301000478,1.0153987269425448
0.7058270586592398,-2.4981809619878628,-0.16336012931005553,1.3905919982950978,-0.6958461500219768,-0.7537285196181156,-0.7125177149280958,0.3846751961317956
0.5358619696612048,-0.3170811086792167,0.7664101835282843,-0.8238975357900663,-0.8041096780939899,-1.3788887263626861,2.4200325757015326,0.25612974925826537
-0.5481827161618134,-1.312213523200596,-1.581355044783914,0.1585278427373565,0.7984152974359475,-0.759095890797853,-0.012511403318549367,0.01866399903242715
0.38986471170869885,-0.22270789033469873,0.1181560652644489,-0.4526156131235815,0.7158483097043864,-0.23669193844073141,0.17406105139792105,0.9725254148098273
0.4161241565534279,0.9635384829513588,0.6391630502820834,2.2433783812134824,0.554761872826999,0.7208913241338856,1.4699547729712341,0.6020197063645829
1.4309815428972998,0.20706105291163357,-1.4015108635004205,-0.19204068157523163,-0.7778098105071892,-0.12904429085681196,-0.7298376427363881,-0.5951094488302932
0.38437868778033063,-0.20678040662064237,-0.41432969708174244,-0.23378084536635707,0.9893621948600564,-0.4792818130393352,-0.19089014720135283,-1.4302455055556995
0.36060224227362336,-0.7543718509834878,-0.8119586279314772,0.5344485903425487,0.49241006859393194,0.5812237448398953,0.2279669749000603,-0.18456531583359392
-0.17970940005175115,-0.16072002344727707,-2.1799532173326073,-0.27483007195600473,-1.7077860856897693,0.9600530827700008,0.4924452221436133,0.6467843062238549
1.5172511312502681,0.6158869133006953,-0.6449654937815764,1.5877438030716007,-1.0996386674359375,0.03040868402680066,0.02633131130114809,-1.1701107921063312
-1.3759886333921876,0.8251151312833661,-1.0859630698629745,0.5700210814636288,1.0207905522768324,1.0292509261890441,0.4076510511630611,-1.930884971698634
-0.23821666139764283,0.07606730035381234,1.0214166397006437,-0.5763214231870588,-0.2729730519475906,0.1869374189275625,-0.9305979029119814,2.1656072723761115
-2.268159588528094,1.0275492744306538,-0.6458236207071426,-1.8046323509851305,-0.2630720482543785,1.7018827678244268,1.2700695943146945,1.282566916728596
-2.014705141829975,0.7103662670754564,-0.052102278722028356,-0.9975998221864858,-1.2303919796130767,-0.07420684283949303,2.118460849268463,0.7104451274515076
0.5299963182983918,-1.1575660421201401,1.820909484205231,-1.3142014710288368,0.04802531156163456,-0.4693999591046299,-1.1434087846935028,-1.4430387736356358
-0.4466272706945998,0.17373053915924658,-0.5831486103180824,-1.9272762150313998,-1.5787993986147872,-1.338362962678199,0.057007737867842224,-1.5404512637849652
0.013513131840706613,3.070716634923976,-2.01876667900698,-1.3340953097164812,-0.2982251500126678,0.419920251437902,2.141878728393463,-1.1605295785734873
-2.4244231163886414,-0.789684212513197,1.7317640644005947,-0.10351594577156333,-0.9421275539301388,-0.8885351758177651,0.21897172421682298,-0.7572019186844148
0.9527603185122057,0.1889357398830851,-1.2176361351483491,-1.1818736146965505,1.4564867763382543,0.2943799627122257,0.0169320308885688,-0.453925364772385
0.8810284609875153,-1.7550313587897564,-1.1863335731320592,1.2466056961071952,-0.48169604163396756,1.2883862831012007,-0.11517718129305927,0.6869082268775464
-0.5692469061229344,-0.6701108047692369,0.5647345255966167,0.5345248795586538,0.709320975279732,1.5278547984035502,0.8868425409343644,-0.9103239135573794
0.26096026183145393,0.10448589849531537,-0.4499910406872348,-2.1230441347341187,0.5939990606863356,-0.49890587011895404,0.47118689810409814,-0.06349351945194197
0.9794345268844683,0.41269444857309745,-0.035609189049594446,1.38930156154597,0.554453270410346,0.29535377429796345,-0.30831261626300044,0.6018988770389849
0.9633380029258622,1.911730001593325,0.47384283159003604,0.4247778265525318,-0.5672320370852088,0.7367727583765449,-0.7043581455755636,0.48588890159387155
-0.434718810455922,-0.6760156943875906,-0.023493603243666335,0.4403679584880936,-0.30893405573015864,0.3174684500173439,-0.3736585515798083,1.3700792564080904
-1.0302029913125612,-0.8965511992787184,1.0904532226790218,0.6894098521993063,-1.1797400142777594,0.6944940989583751,-0.3532000618607865,-0.4147046971966628
-1.1406042538439054,-0.8295136379485859,0.5054802086465249,1.2091416838184663,-0.7784452740923916,0.8925976169010632,-0.7690095146668106,-1.3925967013656069
-0.49066834243123003,0.05744649122266287,-0.8961583743911548,0.684244036201686,1.3557514470129677,0.5008552244953661,1.7475532032773315,-0.7696593886708861
-1.0250580527070512,0.4767790529507316,0.5196360500370871,-0.45142937050239185,-0.834340163055322,-0.3181209453643395,-1.1472769143752535,0.9066052639874336
0.8343042960246114,-1.5964549036654296,0.40358635786810015,1.4547904236058171,-0.6908731124107187,-0.572478136158942,-0.4770215236680384,-1.9078205200936933
-0.9855603844414602,0.5549478161038827,-1.277992906957407,0.019339730520785445,-1.0171198254850264,0.7621912696586278,1.0304899646382764,-1.731374635124187
0.2585708274285272,-0.7161458469625606,-0.63041166147876,0.44225513015359363,0.2064730187255099,-0.939650540219466,0.10905328433594236,1.345136154564777
0.28893240445338847,-0.20907241813278718,2.268952249909782,0.25761279350306254,-0.8956816308547175,-0.34268313344488,-0.5609663958359972,-1.8579096004513267
-0.39118562944396884,0.6309992494479367,1.2786742637965443,0.3268184180186316,1.3009910758484715,-0.7326230073020136,-0.05280406715664588,0.24159184116018223
-0.2930748750038325,-0.4881405292205571,-0.7655033356346718,-1.4384413756966408,-0.19775006718428104,-0.7273098395970213,-0.005477446531290764,0.8234119365388712
0.4977766231416865,0.5943969051079231,0.16792458167041432,-1.2920170579339454,-1.182843241320402,-2.193776470294914,-1.7528843301536952,0.09413944170514077
-0.07227241679964894,1.7703303291740744,1.0721077366314031,0.42371514535745514,-1.8429110602961922,0.40130021712765973,-0.6790528574270235,-2.049348183165874
-0.10978564145639401,-1.542067947461877,0.08946419465239115,0.0031480280064079364,-1.3101574765955053,0.3823387303359006,2.2190392939236623,1.8514281243923731
-0.2119555123594671,-0.40521290182694075,0.08874392032611296,-0.6780231758827868,1.898709193310502,0.6857591911593153,1.434165291867875,-0.334508602094787
0.8506817117996024,-0.9573668418422675,1.5847548718061228,-1.151775539286585,0.9271393283516114,0.31636333481947154,-1.308096403076756,1.2981664795604972
0.8764957506895734,-1.0351897340195677,0.05030541096470266,2.34147056161596,-0.05524458618086165,0.8323483008577777,0.2975561579836306,-0.4001804582801574
1.3570017234416387,-2.5914218481411155,1.8642284762025587,0.4224761294979907,-0.05215697437346069,0.775755466036851,1.259452505805236,-1.7039727377192266
1.4364986032609022,-0.1858640864017451,-1.3874965652624185,0.9230128832980385,1.026517870565479,0.06392512791457583,-0.9945495228421447,1.6671616560858284
2.0562859110447076,-0.8460255445661661,-1.6593252150551367,-0.695980812498466,-0.32430796836363296,0.4412829247588982,-0.18013430217620646,0.454486664977574
1.1285664807061169,1.6720654699368946,0.15886284079498902,-0.36654515049435477,0.5440889557851807,0.6188138015076435,-0.006458767264607662,-0.03818596009135169
-1.1931228651600103,-1.471090042519399,1.1265016854691103,-1.4882504024739938,-0.07579689867732253,2.3097629254576764,-0.8504371452552122,-2.869323918515392
-0.6859712204447153,1.3317606575899494,-1.5399524105926574,-0.9531242033993129,0.6228529785170125,-0.27560641620394954,0.9686813148617083,0.8008882014016322
0.11062652009981451,-0.04229895931222566,-0.26544781131538503,1.669845682658256,0.03401077707448634,-0.8500090747988412,-0.3485573413757624,-1.480889768708243
-0.8252756674686135,-0.5402254555287459,-1.0214237171254743,-1.564682994713067,-0.003827951747300674,1.6787345860325906,0.5668444427437952,-1.6564169942273559
-1.1147124982029972,1.6534299085552888,-1.026986472345892,-0.41276299471197747,1.967921892877049,2.0423469174810402,1.1600725090250659,0.7609386133278814
0.22621424398084328,0.42055929944489495,0.9221499897748817,1.510950658226961,-1.9659342894907768,-1.7058024867890336,-2.3284722950304197,-1.5217877972802945
-0.5537614924821498,-0.00908229321030446,-0.4611683229256325,0.13119943806011264,-0.24719597618863226,-0.8733807644190079,-1.605910564997111,-0.13144904218850684
-1.3480644547659273,0.8263373030550417,-0.1739072838460224,0.9013100676743274,0.32888254089484464,0.7864971372532524,0.9904373882772686,-0.9429472020153915
-0.5412311315152176,-1.4510272334620742,-1.3737458902254147,-1.158847349009281,0.001768988110101532,-1.0768560217216336,-1.8554595089483048,-0.7347416856526459
2.3196234021352558,-2.521585860342239,1.7756325068204308,1.286055324349199,1.1448084527077604,0.014257607415187076,-0.25623004683104356,-0.6766605267752495
-0.13486564516971208,-0.6860622029691494,-1.0757140367459728,0.008503890549734733,0.4126852168957058,-0.28724099390292657,0.6727909708875703,-0.5173039310616658
0.12818321351271678,-0.5502651054532925,0.2517515746689705,1.102151882903869,-0.2039402067474347,-0.8074830095807277,-0.5251878951781404,-0.38265488717154295
0.8606456057060302,0.3456214243735707,-0.2828460806471841,1.2934669082145254,1.4373686869666702,-0.7357829433153579,-0.16865925346618305,-1.5396398834118912
-0.03306374641245274,0.6761432053078039,0.07742173204467524,-0.3170188589465175,1.3156573785058892,-2.10654159067968,0.6856230872302055,0.5535808400609308
-0.33987808760683275,1.2788836984152099,-1.0030901361948787,1.6176034723661303,0.5186536456187947,1.8632510407676033,-0.1673133796853379,0.48199617694271313
0.24721342608830205,-0.8870488154827668,-0.9294360506888956,-0.20582736958279835,0.9635476747178635,1.3593954222244442,-0.4278827854744435,1.1511046165664434
-0.2623441796472519,0.3093233277728509,-0.1829631775794295,-1.2889502636295562,0.22540006319911127,1.4742220096854945,0.2799556334526258,-1.416090061947205
-0.6953819377683894,0.12570645349990892,0.08672052370319298,-1.8404622470429375,0.22276001316989522,-0.6750970690670591,-0.09449371195925534,0.15081928018191018
0.2735668863100448,-0.2669295233231184,0.20565916449700183,1.1642052515795556,-1.579589038607879,-0.5925925852443229,-1.1843617901410046,1.6358720192746572
0.628852957756611,-0.8221387415538239,-0.7633039653415951,0.9138493930073355,-1.3562267114223172,-1.2018731438589085,-0.12232950040622079,-0.7704746698205822
1.0375093518575262,-0.8157185608445229,-0.19965789087256564,-1.1312601680787668,-0.3239431897542182,0.7665926632823823,-1.3997319992626764,-1.0132102463466357
-0.5054887662601352,1.1966773575325789,-1.1065424419287966,1.245268340600211,-0.562554935672913,-0.7665367304718494,-0.7941074686999002,1.4328327474352172
0.913941885480421,-1.5961794477422802,0.873087883354317,-0.2686450767403622,0.601451462338512,0.7576880714222096,0.8687252365483015,-1.3875272446760425
1.1832936228253723,-0.6111844061155571,0.3699908949220826,-1.4633056096271064,0.8245263324929436,0.5414194099449081,-0.14467510196024946,0.2705376430381424
1.006126007422754,-0.30037020173575085,-0.881663352817169,-0.17204566169631705,2.0807953923069316,-0.5781635364193207,0.09632997462223318,-0.5362346020155219
1.2803388016326436,-0.733115780025581,1.229775290607958,0.9223632205076135,0.9210078636577678,0.708502460487416,-0.4129759879562781,0.9858495656447477
0.9739926469117084,0.0779272263349477,0.5407262580782122,-1.6897719995288967,-1.5258108755314674,0.5189882265322924,1.8572587113782946,0.917760455880789
-1.3423316504467988,-0.2999017968535489,-1.0659446195617441,0.8325623591110058,0.1882001427446484,-2.5586342233306034,-0.3663497616525095,0.4489204255330814
1.4006661215178484,0.11131461615669992,0.28971984667268336,-1.3374395356420117,-0.47633559015076565,-0.04134198222867718,-0.7171862540821312,-0.05155671274603922
1.9739733779746622,-0.4275540023891896,-1.5497656013467298,0.3105745075228569,-0.03707854384820321,-0.6788016146686845,-0.9102346037082785,1.06205499971019
-1.6506241220900375,1.8668313348550558,-0.8939868878076158,1.645585968214501,-0.22519374112595925,1.8312502214430686,1.8535393412865062,-0.1076132766760069
-2.199155958812528,2.751819984029331,-0.10496419811979994,-0.04608802432917042,-0.18459279408579934,-1.096118875597344,-1.046073467769239,-0.4791634915195827
-0.8387707755907436,-0.43728465346367157,0.1372344171750314,1.627528409994891,-0.5325212943808226,1.6029111804484266,0.550933755781867,0.5851899380672869
1.2945125681879628,-0.9313988058706907,1.966693940820119,-1.1175048805173884,-0.5302183875497629,0.6145864357200237,-0.8135384294667528,-0.8796505282133864
1.5845044999185633,0.53349144507313,-0.2058573829791897,-1.078420651358547,-0.7125792349652849,-1.1864646037306221,1.58497066361135,-0.8677612259293384
-0.12776026721236486,0.6365441150800031,0.18834171309014477,-1.270642867017321,-0.9781347998801281,0.7739171445757415,1.2307307808842531,-0.5660907158309478
0.9349804276623058,0.5260385162947068,0.9692954952853827,-0.09027812049408022,-0.7208344450925378,-1.3829209465967556,-0.9064478240640722,-0.3605033572710644
-0.09372221115689508,0.29779011785496434,-1.1500385908897186,1.0202316502269348,-0.21577183540101963,2.1120437596636554,-0.6143302380603293,-1.3720821014534255
-0.5319245362864616,0.15615510683211895,0.3651387540776628,-0.6222473785113698,1.3990694599394669,0.6799070744447034,-1.257780675473061,-0.87194995107445
-0.8361138485729978,-1.1667067092189038,0.6200168114454113,1.5511431771831359,-0.973538001479822,1.3653261012549616,0.06880901619406467,-0.948777078521668
1.6094090752589647,1.4047844929676263,-0.6460753602534489,-1.5930857007822197,-0.1298752356187212,0.11356249234223961,0.8306895567212403,1.3556745876447571
-0.6242070907160151,-0.41941001898990266,-0.8390063589300624,-1.2100603994557222,-0.42022850620792307,-0.3517294093006382,0.49244818958024705,-0.8356002460319322
0.8948878709000619,0.4081548316821709,-0.08795104167771525,-0.9220528108290943,-0.872812282098073,-1.3835937824758273,1.4221136319121102,-0.5512778861895236
-1.2856297858861363,-0.15454630744590134,-1.1940741719133532,-0.5787823889124885,-0.06482264463048872,0.33592105729202926,0.9165866194734368,0.00554949117560286
0.1272518166233309,-0.009609666377159223,0.15894749379432138,-0.08487577573816221,-0.5350318122029057,0.3181799209150079,0.6546332374681968,-0.7066170903048301
-0.7371819868095917,0.12915949455501607,0.9927832328463106,-0.44470086933252634,-1.323954040147719,1.2382940989023088,-1.0537606034407803,1.0635346691790124
0.41693206745805367,-0.7590870268274051,0.18688520170071124,-1.620799669330699,0.467646658077429,-1.3958084563894588,0.012404260348447826,1.6426349071419695
0.5912720074245491,0.8809965644335238,0.23157286072796127,0.6492331592087224,0.8513602181256527,0.10715991087052382,1.7350813435743246,-0.9405801054755893
-0.25582724920584554,1.6161821578276787,0.8046487622372364,0.6569803477444641,-0.24249929392676378,-0.33433209529238683,-1.600455982043091,-1.293629339231799
1.349433329185506,-0.21413516507543445,0.7302078586394238,-0.5252096101515257,-1.5359023208633162,0.46189440421889827,-0.5279659557195077,2.3665530598073157
0.59642532814696,-0.3239930108631126,-0.468640933992301,-1.4694420804680015,0.7467675221331467,0.6835703571612712,0.33682684073214825,-0.03185428103742673
0.27853412036708836,0.9183896523980277,0.19455783963904616,-1.2514354544975699,-0.6075280022747248,1.2566764059515674,-0.4155422297949717,0.3779688319536702
0.30481403734717166,-0.22767670137292198,-1.0466472057540461,1.0681958774787599,0.22386137038587417,0.2885731731735297,-0.42821165227116553,0.2283898496044765
1.0328938110392498,0.005988975913936207,1.0347742807071778,-1.0428895598823458,0.5193868564368266,0.34408952779779184,0.6663134622219724,-0.5322204200155355
-0.0314020272108689,-1.4808062964410402,0.4030270333213779,-0.3607795147904228,-1.02806614694035,-2.2056927802248993,-0.7098013885292933,0.3241302193016353
-1.8040984387708179,-0.06518617345063818,-1.18916967352458,-0.8564115374819282,0.7299858372335589,2.587354384211041,1.1978178468197271,0.5436906100032767
0.3928011342561477,1.1410094658600267,-0.061988575124652695,-1.5121877984267242,-0.4378357943749685,-0.6005038896996242,-1.3892687402806285,0.5432063745165878
-0.5504389662689778,-0.3394960341320325,-0.8004505556927273,0.972104699602638,-1.9835531891224145,0.4315056951347439,0.01095298416392576,0.22078172881751063
0.08879364996362547,0.9041895872857632,1.299646417912167,0.2860192549613216,-0.741034590155628,-1.2177255725236702,-0.21998946512294643,-0.24489525468218679
0.18988665240955632,-0.9031637635799961,-0.31637509999749686,0.74400268544106,0.12090979968863831,0.09320154771886671,1.0724398244776612,-1.8993338208248949
-0.6815580950289218,-0.1657519018504064,0.17545948211159507,0.15509713168186737,1.2439377613592735,-0.1855872012416372,1.2975165655128054,0.411133045429142
-0.028697979984631403,-1.0959458458072184,-0.5242183016767169,0.9633298485015899,0.2748834072356392,0.9247606819954329,0.019862925568404157,0.08294901232206957
0.5442709622633225,1.871405561811757,-1.4142438513231952,-0.533408326125964,0.808095120165339,-0.646301745252237,0.49159255276318164,-1.3383033687377601
0.7722665763382797,0.4595940559415542,-1.2802395248933112,0.3221583099934993,0.2983466662617756,-1.0538785083527877,-1.044178476386566,-0.8975196184004682
-0.3447091839120377,-0.6943953463862071,0.6168622148209438,-1.068428038678094,-0.34276497398312,-0.4879543481415428,-1.191019200727808,1.1906056098955085
0.5556609475778683,-0.787844007356425,1.2013632791988824,-1.0617336999645486,-0.5060673199934662,1.0640438825810838,0.06716779503300815,-1.4799456159007167
-0.13821872776592722,-0.27787936046580247,-0.5303316725085631,0.8171481001972564,0.5337736886951785,1.6001959948657518,-0.08291344789060935,-0.6579143185831091
-0.6648970702318237,-0.4274962673921581,-0.19163500602332423,-0.18920350785024684,1.2528055386306753,-0.18162155774682034,-0.5890212180905263,0.30921567722706295
0.4573570726360564,-0.2558168995332024,-0.04273125873906826,-0.6699044119075328,-0.8377985961013025,0.9209177435257316,0.08611557755183544,-0.770417101613216
-0.8866443449415824,0.3154620305804612,0.49944547737916983,-0.7458427223747692,-0.017598218979035622,0.6831243237769047,-1.611686080579504,-0.5837854965882603
-2.30960924788314,0.15582277206803766,-0.10280153109905682,1.5635747996344842,-0.5381136080165551,-0.26538534160889404,0.9219758993078485,0.18052924894870265
0.29112963078771376,-2.107985682689022,0.2171867687687103,0.7356311716770737,0.5523048921696468,0.962730471321336,1.2123042259951389,0.3690926790269137
-2.4363540759633855,-1.4880492579967464,0.7437812589278294,0.25072094772905285,-0.13001980906209115,-0.5750942032919155,-1.2945433613544628,0.11765407979209186
0.3734559722096841,0.7578071981932948,0.6496620864806645,-1.0117467691101223,-1.7465086748513996,0.90758695480224,0.5674207221175972,1.3005625024654963
2.410685293616693,0.7800568256478995,1.3985857301470233,-1.3814560640138085,1.0086389774144608,0.7553337739499545,-0.2882279735145098,-0.7065684454596165
0.5641119446889189,-2.2102817945972904,-0.16680143061084277,-0.6321522746647207,0.13623922865432395,0.5033388349537073,-0.6344364362738251,-0.8986601976276157
-1.0944485441605534,0.625830778810786,-0.565452958487314,-1.3519121445684488,-0.45307425325591183,1.4150967451326668,-0.6725831821066576,-0.34728884577785984
1.1240134664926964,0.6507853165325937,0.020718521344741808,0.6445044997315109,0.6375833824801823,-1.245366195771321,1.0153751885704791,-0.697697649472115
0.7079709354452496,1.8539753126785945,-0.3319263912410299,-0.2920615769772965,-0.5175317643645602,-0.3138431756422917,-1.0647505918926117,1.3426596866709817
-0.19030677534018944,-1.3990752031679747,0.2797937612098065,-0.2703659250507832,2.109000774746271,0.5451738703538581,0.14290750665439028,-0.8249011374325521
-0.7571287812220326,1.0483186089465353,-0.7274119983698728,1.1365194157384846,-1.2697287122337682,-0.9205952783606963,-1.6754442660509847,0.062600972717038
-1.030231845529918,-0.10816899607948507,-0.7673112529423948,1.0030869224089065,0.14282046696069664,-0.3914190535765259,-1.3249781948201047,1.452575814397122
1.3369400406752208,-0.8042313181766872,-0.5062454145628886,0.31593520849758683,0.8274902419583687,0.560684629302455,1.5127304603267615,-0.027065984736556664
0.3636115749526356,0.45540539988962336,-3.920176405748355,-0.6645097905175016,-0.5426766735697058,0.008362736494209655,0.03250424341204545,0.6133746226323611
-0.6097017721397309,1.872046383825741,1.621306236568465,-1.7645590932283113,1.434975802703075,-2.2672142376917277,2.2675244230163165,-0.0958380469159503
1.0108797143183688,-0.7368870523722321,-0.6361063125278417,-0.3811265985018776,1.1892266905864348,1.1034163923459588,0.31250648676894766,-0.12378824355120259
0.03217934062815042,-0.2803835123519434,0.7909032274121629,0.5686964085358014,-0.23465606928289842,-0.5574530985352218,-0.47170392774757747,-0.7769857484058149
2.4572217923182924,1.4977622825737194,-0.6572751633971714,0.5014367080821511,0.8122792758707117,-1.913249437462892,0.8635113012966772,-0.4766361802283979
-0.14956105961234803,-0.22363693056726766,-0.24912193512515246,0.4010529143934795,-0.8459645650763644,-2.3887457118978705,-1.10994163198961,-0.21196690710878444
0.005002386986545247,1.7620997525024604,-0.0737124861162231,-1.6467853241080892,-1.1577812188017893,-1.4367489521949726,1.8345040990800716,0.10155669079503872
0.09904719168687244,-1.013535288888207,0.18082534221739932,2.2348715238437116,-0.38080097707463484,-0.29916233954459415,0.2628453727284021,0.05126969831302713
-1.0119749774220441,-0.5068966280587872,0.5243494125605033,0.6924007481835812,2.0573853628632675,0.5262436889171661,0.9981951747171627,0.41063882657805895
1.271734153140256,-0.302495279837689,-0.9403365613126501,1.9979051498191585,-0.2603911374877416,-1.1126441556427662,-0.19941752803655097,1.4384142373674862
