-0.815711946827044,0.3143884800018235,0.5202731575329027,0.2277440333514933,0.7452127981479463,0.6691668976600823,0.2058999457034103,1.1668629959900905
0.14362116691272675,0.05639650806904776,-0.7377165602182487,0.9540382520023283,0.3155998695398164,1.6699238761376738,-1.6758571060642704,-0.33390086740993574
-1.9324051571652463,0.06917457314238604,0.7157269527347875,0.7499190383220349,0.8423007739033009,1.0134432889238507,0.510406639253849,1.2578413603783833
0.15133348681328992,-0.5850203105096209,-0.09520795596281041,0.19597498280476286,-1.3600717595506369,-1.9887954913950034,-0.30432171652056716,0.6995057620561924
-1.850632052084508,-0.007190574529903433,-1.5661628942216312,1.5686559966368663,0.013404520873937526,-1.0600316540155317,1.0204348040566644,1.8714780158843631
0.4086827309012122,0.29831228654292496,1.4621853876785396,-0.790506928289563,0.7499273450491933,-1.7140687304022109,-0.2978047331020118,-0.06737137188065587
-0.3517404639103056,0.32021970775923014,-0.9320546247755478,1.7055539450844603,-0.6235130043478442,-0.4827079899621411,0.7143569894437809,-0.5369375534211085
1.11040259167805,0.2504860796305245,0.32859493607430446,-1.116627263072405,0.1940184301571966,0.04746527453565635,-0.8802409289493449,-1.054056927126217
-2.47885637286142,-0.5721845969264897,0.0573303950210906,-0.13191699662930376,-1.5771710949648774,0.030570704023955068,0.49292477621707703,0.4145229486584364
0.11378671717376508,0.7108529564951644,1.318976561063034,-0.7762943054191881,0.509726529764843,-0.29537425754578944,1.7701576101228451,-0.5808720700229736
0.38927919641719577,-0.5710240810248748,-0.8960898744995183,0.04667118702003633,0.4053582219522844,1.9320477465177723,1.2050787504182672,1.1920550764130156
-0.8126251780557248,0.7571539233248631,-0.7977877511714025,0.4438582510761034,0.021807538246032612,-0.21560028786305666,-0.45787622731052824,-0.4140495320343043
0.08419386379581208,-0.2975049628579886,-1.6617619575733034,-0.642641264720619,-1.2649259616583035,0.9751482080401527,-0.8083682930671376,0.4486430778827883
-0.3417619728837914,1.2398644198933333,-0.10441133818745763,1.2555226229289305,-0.46409652674130364,0.3009614689662685,-0.7406827126076583,-0.6594181482692454
-0.6987379321214515,-0.6942251926955968,0.7954398686796651,-0.18899183896212424,1.9004557705895013,1.1313195812308614,0.7379481860580146,0.4442354458253817
-0.7761333725527967,-1.1206730296169258,-0.5867819178458621,-2.672592291385398,-1.7564261568426818,0.6852094509548816,-0.5348802486954616,1.08379055871903
2.441551241616515,1.2755660033965277,-1.290866286732801,1.2798488362505187,2.644138950363667,-1.3243950736317842,0.35330450523209717,-0.4120512306097733
0.7823184721111955,-0.40950686742554937,-0.5661546038113073,-0.5873199838916467,0.4803385149119581,-1.4775832477132087,-0.9448527112472606,-0.14138141084151812
0.36464172894852626,1.0479544559480929,-0.5343996864452896,0.24428237296467056,-0.2416870749084006,0.7317904217479984,0.17215547105027595,0.2861423071511691
0.443558605758912,-0.14327338667911288,0.7391457278818393,0.5336385369760718,1.3333808781759593,-0.14152994403639882,-0.687619479723312,-0.12093128016459295
-0.4897133514090857,1.5450424965227552,-1.7577791384019612,-1.025000296838938,1.4369693205156702,-0.24041523675467766,1.6047177931588201,0.873172712064716
-0.1431591813867176,1.458835408002264,0.19594612612122017,0.1746047642547239,-0.6534674098404323,-1.1502625151218002,0.9935752267089005,-0.5309647422473371
0.5438829233555761,0.3080339892596138,0.7096004788805714,-0.7669498224665681,0.011648867837922412,-0.4111817098142566,-0.09007958589306393,1.2688443713672855
0.6095537043129916,0.5469998539155924,0.7930195140392254,1.3474175850751784,-0.21357822229973386,0.43129151096708934,2.133374168113489,-0.019550285790249467
1.5607034021667172,0.2506759646891412,0.11940016248087679,-1.236428186727451,-1.2639988071690726,-0.11388210278596397,-0.053432201096778854,0.15123457018716616
1.8582113188552214,0.45329527213900583,0.6572378881127406,-0.3544677354928561,-1.179249428454492,0.9069737296491718,-0.2887145240679386,0.4855523421131066
0.01389049090509171,0.7434456732264033,0.053917418640175976,0.8012654129340501,-0.19092375952595905,1.0738287681758438,-0.25133449186672197,1.153624499569544
0.41936974213119416,1.948189090123833,-2.5764197414174057,1.1801139816722215,-0.19964880816050104,1.244835699633773,-0.8090371692635473,-0.6824893517054661
0.19157546199392098,-0.050187389913690636,1.005040959429829,0.22272663824815114,-0.4236054953069013,0.6518052969477485,0.19079358980542763,0.7065105885839826
-0.9598096255801729,0.14019295922990455,1.3160689156049832,-0.8952701163291356,1.5706901873638814,0.15919411585692989,-1.5273133934895118,-0.2935583843672502
-0.543020513728737,-2.075470490008724,0.48366234432737754,0.2507435542662312,0.7038879486766798,-0.37668952837394737,-0.25795098787883874,-0.4872139243646399
-0.7009710284064686,-0.03579625268719702,-0.7839598943964825,0.5234827161642356,-0.44150374718951496,-0.39028818970199114,1.125913811228513,0.26894708198360806
0.09166219749464166,-0.4004132051474809,-0.29509551888286745,-0.19488356545173194,1.6131154377762638,0.37145501773211065,-1.5161913096703827,0.0494160181523467
0.8228502682810226,-0.7373872905937888,-0.26163448167555314,0.8076727679015497,-0.6537828445146647,0.8896633234868576,0.2783511254047983,1.0855602603274528
1.1781959589081878,-0.671129635743655,-0.2678115837677183,-0.19593708354389705,0.3738972397612889,0.30832807630920417,-1.6214600707842166,-1.0049428577928325
-0.2728389784978714,0.9585648174613709,0.11388017989278605,1.546020496090616,1.6847549007913665,0.7663775215619093,-0.16685460728196974,0.11344518432155017
-0.6045862067706419,0.8059354625382723,0.38496086619370995,0.9915851978828659,0.5600077367339753,-0.14938479646426722,0.18252039280957208,0.1041911837454829
2.2100727653641035,0.1188738009081977,-0.4904296540054416,0.13582973100167448,0.2589921728022087,-0.6076213212620853,0.2243886521777328,-0.6475850177649564
-0.10658474079625793,-1.7935034440937727,0.4680016123903424,2.2326790396316367,-0.6494589642562067,-0.2261321703280431,-1.0562915139580265,0.5723629997289481
-1.0116265799138764,1.2348343747466977,0.6190547571985117,-1.7827425158598724,1.821695069077081,-1.0350412153971273,-0.8235530295034428,0.7832597346940631
0.7666950114326445,0.4189896072215744,0.398562998612576,-0.8089790441114086,-0.25067326880594676,0.9083351081804832,-0.5859667770796322,1.557300917730407
0.17275894150406731,-0.46692142315541,0.3649217601269704,1.0411632366150294,1.260036596886464,-0.10416538687204782,-0.21670896716055071,-0.9993596335421189
-2.114466048908015,-0.22618732325146426,-1.8069946842631985,0.9309681329141783,-0.4841180205215658,0.8619385252117048,0.44181927808848626,-0.3895821774210642
0.21232944492815978,0.7660894073953399,-1.0517516975539227,1.1272143654850204,-0.25798531279698833,-0.3089695012147629,-0.5050389967960675,-0.7241471015368501
-0.1435982046364028,-0.9775324897519416,0.13359854408136881,-0.1485419914810455,-0.342905690079971,-1.1309054092918562,1.4011893364838637,0.43510197524474903
-0.2346738634730768,0.2829536590239008,0.2966977799220338,1.0006666997437024,-1.1632919139891627,0.5606061723848781,0.553645929698117,-0.7454754262441121
0.6906623288749688,1.468535611829663,0.48688809687057544,-0.5352742385732884,0.4822420727914195,-0.3000318367148966,-0.6842350788946053,-0.44596561980320265
-2.0785098235323054,-0.5978221816985749,2.0229599177706694,0.8652935936299554,-1.3822167834407,-0.09139149847919313,0.9848815956366026,1.2910017311562794
0.20673715636957737,0.03775333130359345,0.14073925755779693,1.767242735680745,0.16688440339735888,-0.3390562202630051,-0.4722320594614097,2.151105299946849
-0.9280962775903744,0.43274292361057387,-1.0057902566678998,0.7009855113258214,0.3038214526558961,0.6728722577702478,1.0864636092743383,-1.1999308340170147
1.4944486691807413,0.8172418444611708,-0.8454705056247819,-1.2821763792845613,0.39253535497324715,0.7445172114732033,0.6904788887265345,0.5049911738737227
0.11029821482798677,-2.3088502312651995,2.138762698943353,1.3219773937007395,-0.7573769801697303,0.3551383314663386,1.5892845781031146,0.5491053704419467
-1.0764665502680146,0.027716646083582708,0.007962431246460993,2.048343181759484,-1.0250466971885903,0.33499851655732166,-0.8233368438579857,-0.832480860684017
-0.06777562549344567,1.129131736373048,0.03986010018185479,-0.992358143831108,-0.793840494800604,0.5355215850328902,-0.5221988167256005,0.7764427396098375
0.7667739713461282,-0.05483386327602302,1.9146268922710261,-0.696408444467056,2.117303344875256,-0.5417139986356596,0.03775823063941952,1.3205361476732294
-1.1768454526964862,-0.6789962750953049,0.3701050200930037,1.2491355489539864,-0.6944291482079333,0.5098872062892986,-0.8147646604655393,-1.7028819666264283
-0.641517020268433,0.8928739541177863,-2.020586281482654,0.48720552400597184,-1.138702901991942,-1.16386063612435,0.9308264492530416,-1.7656755234933765
0.07404264018301795,-2.003258408827637,-1.2307498771738554,0.08630166155417913,0.5701093085046006,-0.23381464753004835,0.18350526989497729,1.5579876128413477
-0.41061452164965967,0.6487813530201744,0.10608981944958991,-0.2838243840827752,1.4254591254474436,-1.4462172895532657,0.7405403302461613,0.4120462435914942
1.2918754679607396,-2.232726637409538,-1.5527371474072063,0.35696980952237656,-0.6116294574839243,0.5231852380094402,0.9169773994893583,0.048255278755993246
-0.5579769187960028,0.8912222048241787,0.03919724625308954,0.8032878700853935,-0.7033604039114028,-0.030306687951820475,1.5441343251687891,-0.828163608878206
-0.8708188862791895,0.6935384889514948,0.9099175912885773,-0.11400209911661074,1.5529225162499174,-0.3191490942695922,-0.6992381803630995,-0.257243800185684
1.8825340229472562,0.6920767640014439,1.4635987794468481,-1.306822838524154,0.5655222020601498,0.3258435987825269,0.09513712045430288,-1.2240407707779422
-0.0641077120852474,-1.9140414291842944,1.585222806497672,1.3144778259883354,-1.2646757374200859,-1.7354948285617735,-0.7732788734877234,-1.6829556844179103
-0.09311867270880994,-0.4124414314481713,0.21393402491596927,0.6615315727548725,-0.6167738430438632,-0.8370813245450774,0.7588390017982242,-0.7057204937505706
0.9342659271242009,0.04816357186486732,-2.0603726571362855,0.18996290754649472,-1.0354728941924327,0.10293751615222888,2.453020498919491,-0.7586985170895675
1.4468256801275643,-1.7832988071753848,0.7801309499712936,0.6055360610990612,0.5815857176580774,-1.0222866967933855,-0.26741955007213164,-0.15698894333388755
0.1729662217485308,0.5508217092622076,0.7776757381677388,0.5342851872417441,-0.5097633456232674,-1.3337182154312166,0.22324496465427274,0.19887238359815923
0.3519587495712984,-1.9958282883939469,0.9189609005920081,-1.5934953812806805,0.1281220853929055,0.04799465134406349,0.2907720493581394,-0.2073160452565039
-1.06786375794876,1.5331560615647721,1.1768185342781798,1.1985147520099237,0.34760980977178113,0.24058017476564134,-1.5739793012365992,0.1469406512596594
-0.9311080928471427,-0.5366778498009376,-0.21575953058823485,-0.30885584247970393,1.507173421651743,2.2572048999344267,-1.6356987114849688,0.4767060271071056
0.7427159144542629,0.6615408135575049,1.1620431867437795,0.4190878560002635,0.46490692339935624,-1.278834071236591,2.248215397729654,0.6618855782941937
-1.7247204234453437,1.486624922797771,-1.6113681747000048,-0.2897514241727574,0.7139715783835,1.0009694154213014,0.3398049239346357,1.4565628105984016
-1.5309721579364712,-1.1446305155206276,1.4423492572469445,0.1154343253117311,-0.2852088089555608,0.000501473517548411,-0.06401062359719714,-0.5355109299065686
-1.4531640432916018,0.4079068947538684,0.2622031552703903,-0.09199401228073793,0.35057267691399524,-1.2215365036262333,0.30384969081051083,0.6596814601448042
-1.2746420697393175,0.21395989156179224,-0.30443509571610355,0.35445170415053284,1.4212295568218067,0.7368670671508076,1.1810845635511855,0.8175653225330639
0.9952873826627487,0.2982242780816057,-0.30485691387104813,-0.546046950357389,1.0105751128786453,-0.4454205761974021,0.5188500330003316,-0.28081255918308107
-1.6443461785255988,-0.7630928806484509,0.7713583703332209,1.3517955397459271,0.7143998333185728,1.5006684510316628,0.5864728608439047,2.6788518172888667
0.16389308917553103,-0.8785542424466912,0.02476367071881062,-0.5038925205641833,-0.35502909648245023,-0.6329262197962447,1.254434248083517,0.8830587607024613
1.8445359103008725,0.9053406890841467,-1.5512062509033009,-1.2411409762133658,-0.35564184532843707,-2.0587385281176327,0.18423194535408163,-0.06234768316575131
-0.06763741313757743,0.43637398174507525,0.43455479436866296,1.2068164332039737,-1.6296633224252228,1.4614579226593714,1.0257989667072471,1.923274325136866
-0.6850388338885833,-0.8456061278801981,0.41366055083774583,1.3502246621357858,0.5620749560015854,-0.5504834750367209,-1.0038897221755565,1.4056401836148613
-0.4955223846466877,1.5696738853443941,2.08251354408633,1.1402969935916052,-2.113648997240223,-0.5782036992174949,3.634612693678438,0.10657087738067968
-0.12884098169526226,3.094538272161933,-1.3593519838426162,-0.17239062452933954,-1.1866761529538912,0.817337442010006,0.4859229866969828,-0.6752260824693306
1.068100217262901,0.5976022364491484,0.34437948103555754,-0.5640928163002206,-0.36687500691289254,0.015517713203345768,1.0950047780327379,-0.7879620852441981
-0.7866376726005313,0.8117936786411875,0.10832233315623409,0.10639015496394044,1.4889317943539195,-0.9532834782186773,0.5950960582503257,0.010566167666466512
-0.1408141847997516,1.6280859201808928,-0.0189613305008459,-1.7768727277078957,1.3627414999117704,-0.7138695319309981,-1.3469771325937434,-0.7592625142873654
-0.6733527829870388,-0.5119609946340101,-1.0032773944490838,-2.072576973583981,-0.7420191278603839,1.84195543394316,0.3138273328689567,2.0180986935563836
-1.9078272521718247,0.6898630766671207,0.028371776221940256,-0.3251011924823887,0.08498721930407944,-0.9702362001803361,1.8435275115042182,0.3628123731999425
0.27815636056226156,0.060963803453124986,1.9267720075796122,-0.18035107289571792,0.16026879138673644,0.2036426109874891,-0.8606910045705806,-0.5254216797021667
-1.0227568836688354,0.7270080777343001,1.2046972140843166,-1.0912409289750147,0.7383115532109386,-1.0312242530406655,-0.6887705998424732,-0.24806376717572767
1.3416853964191324,0.813670684161452,0.5728354027779816,1.0896406363882651,1.0972808123463713,-1.6476983243250611,-0.5411492823727516,0.4741564655865423
-0.40605246681213086,-0.9478316292067562,-0.7770841768154788,0.6518845921067903,0.42740622331888034,-0.7958796026093223,0.03685855803853513,0.32851312928819626
-1.5085698711757942,-0.11072410817965828,0.11475122804093692,-1.2957651548784246,-1.1395771578674219,-0.9876231286489772,0.5804694876690295,0.2854965408990077
-2.0538787287410756,0.407520641325948,1.7002276345785547,0.054079907489934714,0.07542425950332395,0.6524705908646619,-0.3009610517006495,-0.5928072051346744
0.3958676959017493,0.77826223744537,0.9428325304071609,0.05817184860531231,-1.131854387364471,0.02934321748622086,-0.28429219496447694,1.3365015337739239
0.33955168555385423,-0.8098511701988617,0.2972436355210073,0.4844376359377219,-0.08307092242621338,-0.6945622916189196,-1.04355343408983,-0.5580717671353597
0.6310743381449058,1.6880427785487453,-1.3120784016529001,0.6472102810562924,-1.2098392568861032,1.1758016423864055,0.11731704801892305,-1.9459576050787188
0.8706658022287854,-0.482688084544286,1.1493948620064338,-2.091593744825699,-1.8262634020845505,0.005259391808655483,1.6324094167357015,-0.7988218631451679
1.0741939952743935,-0.3015859515363914,1.1177234677026573,0.824194972839858,0.7144230427363097,1.1556851670730588,-0.40196372760910315,-1.6591440443048784
-1.049570993313965,0.16243486039415111,-0.8088142438681241,1.0383789250511986,-1.7591118766497975,-0.41026444865902023,-0.37003893678373484,0.45322578654689927
-0.7091200158683509,-0.6596184123985264,0.4081609282748517,0.07911455819991996,-0.5188508550814276,-0.22156594233999588,0.4861584957281072,0.5207489304539773
0.2802548620278314,0.968863826046632,-0.7564185494153587,-0.028966389373001878,1.6101108268116315,-0.2865650926216776,1.3985640547332676,-1.0578737251669976
1.580158753116244,-0.36329459165154915,-0.48024416223484323,-0.30493639540470224,-0.3778559336485357,-1.081068579622963,-0.6792783289650935,0.12792433955523985
-1.28770581575188,0.1832924837408786,-0.4900257458382342,0.31576140194429164,0.21973754457804212,2.54122816091255,-0.15040773113855274,-1.3308624969905378
0.8200708861536498,1.7907820296334998,0.9519936031997808,-0.4024255764567405,-0.08748589155974736,-0.11825877512357204,0.2954571967678846,1.132035305788843
0.8330005340738001,-1.157582321293255,-1.2963590248297656,1.1099289463912716,-0.603023800681539,-1.9052989411445491,-1.3284106220909688,0.4304198346075214
-0.49194180269149934,0.024020540629256543,0.13417997510903668,-0.5846498003848877,0.16132886799062635,-1.512680402770873,-1.2899267883056553,0.8154522511764822
-1.3803339187648271,0.07713587060908489,-0.7238431580708898,-0.16274891057504348,-1.2123494284392484,-0.6639474702341897,-0.621708207587849,1.1265496542754008
-0.16669865042456497,-0.07107548937179846,0.41765123547919897,-1.285730006530775,0.06918211103535954,-0.7746025179904299,1.4636838234881024,-0.08865381957828672
-0.7463334237187754,-0.24212782917049078,0.23343041556012487,-0.5386084309968838,-2.2103665723513304,0.46055888484737,-0.18708630560675896,0.7764213897108424
-0.12683340181311023,-0.5616226863587549,0.8277704718078758,1.5575638166512953,-0.5422905362118893,0.446966072495577,-0.48127773127376583,-1.7000407524452785
0.6116913971685164,0.588351857163463,-1.8589820637532382,0.11510577153858506,-0.27851005280931007,-1.1111906463578372,1.1804946869570514,0.33992931670629084
1.821297578402571,-0.30235984247294934,-0.356576263869798,0.10233829524957762,1.6729297314002045,-1.106155221154215,1.1411748165812465,0.29601451868776923
0.13657577308652794,-0.3735596994939533,-0.447025976839932,0.60679523274017,0.30457903453607765,1.5638895497027911,1.0016207939714432,0.5355387009873009
-1.4116419838594418,-2.208823120248525,0.2957681769972084,0.5016027410201516,-0.8301102139118874,0.0691794332263463,-1.5627294889137648,-0.970123893747257
1.3750252861716017,-0.35364881879617294,-2.013708587510997,-0.36465277970357224,1.0459497309814934,1.4877305453438736,1.6150280589158341,-0.8566840570856281
-0.03228211922759732,1.1722606868505652,-0.9146221382008232,-1.57109555442202,-1.485595155884823,-0.08115945333817841,0.04603390859326604,1.1542213046924368
-0.44322416664708075,0.3056593447057939,-0.8569916724291736,-1.7822204617705284,0.3921866879914916,0.004045852049171492,0.4691676901572958,-0.0051235385531646005
0.5777363258075969,0.5610173003706813,-1.0569781749252514,0.5918225559329447,-0.9477321107596358,-0.985526151169275,0.6191676393574193,-2.9367668788366834
-0.554145613395463,-1.4521905445787129,-2.397624064282642,0.9604466355678631,-0.06776919582982938,0.6827258721864313,-0.2901485662576255,1.1777124267307229
0.234427461390843,0.0709691556199855,0.9681941611768361,1.0137449717791809,-0.4447806700874742,-1.3024419428434515,-0.589498674733699,1.7292508727974172
-0.6249423423716051,0.8900483036789589,-0.44722216280534194,0.38180307678481074,0.3497649345428248,-0.3761120959951882,-0.606847955182297,-0.4004197944730713
0.03073711795849207,-0.2532088970587037,-0.5923655971743067,-0.638125634371778,-0.8124165344988161,-0.9876593126278231,1.2930711411863924,2.3300959819276885
-0.827955220194433,-0.2790029825867558,1.3841482471875566,-1.15446783437455,-0.689940023394104,-0.20321461724761317,0.3696281440733875,-1.1744247114720536
-0.6273892514750041,-1.1467514900234845,-1.3533096186883882,0.5900560379267863,0.37837436530541957,0.08231765686985217,0.771613665980338,-0.36020622530082524
-0.491206646140113,0.7236795565062377,0.566642492821414,1.4851121607810311,0.1087945102393634,0.6642405288481538,-0.4942160352151803,-0.15818699305683556
-0.4703905446456386,1.1014001285632289,-1.0997966958343492,1.3999777803814266,0.18045028192666512,-0.0047926257934304654,0.12611228776953293,0.12556081413705078
0.8013758837165043,0.8097007298621279,0.691612068027593,-0.09147308867340152,-0.776511780445253,0.2770055486599693,1.9181433934043148,-0.07358351663101953
-0.15448632168927878,2.2044082264783396,-0.6531204577606899,-1.3942104378097429,-0.4095918003415426,1.456222817395818,-1.6915151364288226,-0.6681940068377549
0.8469152695009103,-0.19048020152934436,1.3030459276656297,1.9992906172537406,1.8844638256033037,-0.8345704249778501,0.9190946242110324,0.4759425699277988
0.46041753829629,1.779375384043114,-0.6595934508393543,-0.3853456393247597,-1.849853724432211,-1.160278666663255,-1.0592988903435787,-1.0287586400358801
0.2779870992448384,-1.0442668353759366,-0.8784308423735876,-1.736737473453983,0.07502966281005037,-1.2138346904292325,-0.7346312851253769,0.33260387588556567
-1.6960789463400243,-0.7579112911893384,-0.5244340524500288,-1.1688596102083852,0.5668737586047974,1.097674460688681,0.185958246847564,-0.41373941780458584
-1.5862907816625227,2.558029825236351,-0.10801616131923698,0.04897402933097844,-0.6183390381188058,-2.2988287467210955,0.3513328061631011,0.6808759223570201
0.32053905448760045,0.37655574417485804,-1.4991171784337372,1.6778267024288465,2.323486845449314,2.2382162823064475,-0.1316905712760552,-0.6428132744575822
1.4653934741268968,-0.12012112359305614,-1.090460961345037,0.19945013785512672,-1.247747700257395,0.7340097693764766,0.033899216969315756,-0.35612060581683486
0.20062254139860095,1.3884041869895856,0.6153045257206364,0.11534227667724985,-0.9318424044081537,1.2769122338262648,0.35990139711532837,0.17172271155102517
-0.15907173554315382,-1.5334938553949646,1.0144361772828885,0.1347525581900549,-1.0437383786437058,1.583309391862877,0.8959836169550733,0.7919239592062427
-0.9036989049293284,-0.4198273593056224,1.1026351122344709,1.525642301392779,-0.8423041581909995,-0.30417996443319567,-0.031246449614821384,0.5686581416937512
1.130629748317109,-0.231022959467943,-1.8087016400663618,-0.8487999630925136,-0.21768621411595598,-0.5780090377747803,1.2024109614637464,-2.3573457937814064
-1.2301007274401627,0.948607824323315,-0.2736173909320083,-1.4860110805052873,0.3167986865645337,0.623435538212696,-0.19145418718271504,-2.0816702214242513
1.3024201362334957,0.9240102320176706,-1.6537008672695097,2.2210353292587146,-1.3776460852366421,-0.0896009506609308,-0.05713131680767246,-0.32828319194678246
1.3919028763949761,0.2618019432856937,0.19769266020629633,-0.6218203804601306,-0.42567596246156836,-0.3259816971661354,-0.04693186836541255,-0.5309960506148541
1.3668060532360164,-0.8229550839222238,0.13800862961930396,0.12064913754392469,0.6677556431055912,0.8954147033511853,-0.9668211226492456,1.4310214282520473
1.2799261022266921,1.3725043412005902,0.01973002675124192,0.5253140467583645,0.6343292765778795,-0.9676515710328032,-1.556094312398881,-0.29285359217701495
-0.6572673272495808,0.7739544765352704,0.040118927365140215,-0.06623302830349921,-1.723288022174875,-1.2938109472060149,-0.5082484376951272,0.5839574634295444
-0.3453828971942978,0.33346968089745876,0.2809973798206211,0.5921689701001756,0.6431106790217255,-0.26006986864344067,0.05298906289373002,0.2019081542580246
1.6275108977341426,-1.0319458280132232,-1.8648143505525574,-2.537684051971081,2.253939841927161,-0.9812793197053934,0.45228927872802704,1.2123255111219695
-1.4513621768352407,-0.3475593569758005,-0.3120150698404504,-1.3630162784475237,-0.5094545565664873,-0.04853407229994429,1.7369354815333078,-0.8031024460763911
-1.1130613080196132,-0.3119689383746109,0.06536072846154459,-0.029443204391557107,-0.7762300368675824,-0.6935587127577919,0.8399750348371711,-0.11534242999061134
0.4959166549439377,2.314872213342953,-1.078302758431808,-1.03404143592393,-2.1070426876885837,0.04702055009184797,-0.8573364365405978,-1.401615151369973
1.9985898331834135,-1.0950079718492496,-2.1359467979912865,1.3031887485401343,1.292838630230844,-0.6013971853886959,0.47597237754624744,0.035838624155348185
-0.04765343379161501,-0.5099440657503281,-0.1587154799437506,1.20421644023995,2.2234697382954254,-1.1159988647672812,-1.1013557219083667,-1.2674058595448565
0.559137863601998,-1.2742122028660683,-1.3475173849639535,0.015980638662682563,-0.1630109393488026,2.037613085762828,0.3544283486109977,0.6731711315976543
-0.29403518967059844,-1.5045600146437976,-1.1971881774712474,-0.4494089914179233,0.3586770544903852,-0.39438523940017056,0.30707045870003863,0.10203363139083177
-1.2070552890649577,0.07526117125112228,-0.41586926894096804,0.0160666578734703,1.4784495537837203,-0.5377339594492191,0.5723733108698421,0.019274926804319376
-0.8896382300456535,-0.7029906155260081,0.039225131503830474,0.7919384571268647,0.005841768656989273,0.42928012545560607,-0.45411845446637333,-2.298314550182504
-0.8589408238289816,1.0327021709566713,2.4086763148690076,-1.1292204165337767,1.0658809185478078,-2.6732174204211105,-1.4007542156628034,-1.0080233472304592
-1.7471918527167163,0.3578742468038107,-0.26094732762041617,-0.917220574108384,0.5176867843964804,-1.3301401516288984,1.6507870914856664,0.06637241974355086
-0.03352480657561672,-1.484246597466264,1.0495559779526107,-0.9736598651488612,-1.0129241035773506,0.010668251523290284,0.5015824214732142,1.0318586131405374
1.4626000438505713,1.1855372146403718,0.813448697439053,1.9078443596677268,0.41026840381480195,1.264917373571618,-0.8325109988627547,0.028672153976355252
0.38695970637231475,-1.1926498747669438,-1.6110332275828623,0.15942444886099486,-1.1190395207240513,1.3551577720849513,-0.2711195758161012,-0.02706784991186829
0.7913668172563236,0.8269374797617662,-0.023899000365531414,0.6972704822417499,-2.0133499496652947,1.3769361839681928,1.6436922396036349,0.12437060272041138
-0.4830765005528283,1.049792535942574,-1.6639688368412262,-0.9400855373740247,0.45716661009474346,1.2540939372906403,0.10495441222895037,-0.2730224164301992
1.2713922161255409,0.806013934441558,-0.12326221936205312,0.19022105744052456,1.9764008214826447,0.8512143106067427,-0.3448940115970332,0.6210140713111486
-0.8289601959942235,-0.6618563117029662,-0.9583263006135523,-0.022216182721867008,0.6165396400241165,0.18884456044416656,-0.894748003146737,-0.9221139449079806
0.6399784911802504,-0.4562788252912664,-0.4863426145259449,0.4829807134791986,0.13856120676374561,-2.6160024693258004,-0.29999069135933565,0.5889575685299708
-0.6429434348844599,-2.423869376106543,-1.337889425414055,0.4051154573765382,-1.016213246542658,0.047681093312740175,0.9565903213337966,-0.29362610819944773
1.7698314907065518,0.5439230424194709,1.0513594934764388,0.5160273335100262,-0.5048540918466119,0.23024911676595292,-1.5565752610020285,3.151250438667604
-0.3365335101142644,1.0476637226332566,1.6299732612529338,1.3033092032215643,-0.8001615701214427,0.09095165845838947,-1.1396619549150526,-1.5459953982986612
-0.6603650064180833,0.5864636440208568,-0.4329347976151534,-0.4613582023810046,-0.06089225682888155,1.327744769961211,-1.2362417831236419,0.6010440351651495
-0.3412473540958756,-0.5646913128678432,1.1650179612387794,-0.4647766896110874,0.9056870178803781,-0.4820767135252389,0.050390657090017915,-0.37999758715591875
-1.9626487342198873,-0.43680496259730084,0.9890987007114062,-0.4464023067291335,-0.9257183576730791,-1.6071666664581006,-0.40047281205218904,0.7978143124163681
-0.5866877687998409,-0.3179258738884464,-0.8889332364615996,1.730858703247751,-1.2038925700962435,1.7858112639801094,-1.1574544309003945,0.3393531332906862
-0.25219777285298695,-0.6219047125472141,-0.17412335359922462,0.6278952782772357,0.7150767514984046,1.0996119776131774,1.070419538506157,0.5658318674321448
-1.4125435872391936,0.8402353679970869,-0.1953345619340346,-0.18784636804747407,-1.3251790349993426,0.21964317066235392,0.7506983409277325,0.8396962467706653
1.2952008674797042,-0.6585977536691427,0.6977428243701489,-0.3996314210395742,0.09595317242401075,1.1872481547467912,0.03686681874772159,1.8856242575608628
1.1575455119063267,0.8541038987987424,0.5934219720165318,0.2639481343595987,-0.4773067588588462,0.5970674232922232,0.6184952840405845,-0.4724986355708535
0.012600582986579392,1.740555627420444,-0.41246118890231653,0.9984020437893301,-0.8892958777450435,-0.8436287670511466,-1.4041177936877718,0.0742529939892374
-0.32295917796644213,0.2700230493326289,1.0737269242139071,-0.16721042922328272,-0.455695749007417,-1.1496910730845626,0.3246690443731304,-0.2677142196667062
-0.6783441280499865,-2.1782004445975427,1.1808121308849837,0.6285263380688036,1.694947378479397,-0.7640563877640759,0.2004869535222354,-1.230423872381716
0.5405904490045482,-0.9353936827281008,1.8238956901940924,1.661243942313542,1.2036691627309186,1.0638468327867119,1.628171642043417,-0.7873418123268089
-0.5079644633793868,-1.0247538579241768,-0.050899478432980386,0.5063533167535984,0.1413251901936787,0.26949856252610577,1.8221120545779528,0.12975146441526159
-0.39367297729400436,0.2617016394743658,0.7256984642566497,0.9732485036395833,-2.013176211811168,-0.6198740031447519,-0.20307239551284748,1.4379773544167593
-0.49040700866161646,1.269906129913873,0.49515842774780394,0.7708223231083673,0.731510402093714,0.6364066127783403,-0.13145453861651882,-0.3251405376996837
-1.1844533327544113,-1.8995974376661082,-0.13929632482583149,0.2777513403331603,-0.7216180725126341,0.8756815904085972,-0.21681467303228294,1.6571367948737499
1.4528472437599593,-0.1565781593281861,-0.19460608828753181,1.3246582321905438,-1.9134281082873836,1.3962476190684323,-0.43004390884136334,-1.4664174711124733
-1.484867482103406,-0.30301299451697156,0.6757991370475611,-1.3837302426196731,-1.4978868837160932,0.894274224406469,-0.7320221213475244,1.1517112256663309
-0.9106360620293391,1.0440781096586091,0.00841962921155342,0.7158185433679884,0.2807417348404924,-0.8307460829530428,0.8481891554200336,-0.44299473204139145
-0.5220523487730697,0.5787148625807406,-1.4805581449734395,2.1355344674589563,1.051510471306354,-2.405108451678773,-1.9325890923864322,-0.2572397928508919
-1.9059154865214103,-0.7085443666065773,0.508397389818579,0.196063058780621,1.048966587986715,1.1946715361527112,0.5303849497662926,0.7544194608550565
-3.2120527232891765,-0.47855150531236235,-0.9163305387241558,0.09260633932169403,-0.6916989557201972,-0.8995141136801579,-0.5397395576897706,0.8780197017267173
-1.9603077833275202,0.7041279258389485,-0.9943381543677934,-0.05109785319887562,0.23755959968229282,-2.5989750851713485,-1.1378691315516907,3.7656793073685915
0.8372785601922923,-0.45673282078292987,-0.4712235481782838,-1.4992942404155993,1.3739311072282003,0.7999653667634927,0.26383440137047953,0.40517651671432126
0.2114213027307634,-1.1660598865412302,-1.9379513748384678,0.7578438427086329,-1.6408304712757071,0.03841671390080312,0.02200287227445478,0.5770648970868618
-1.0672324490277425,0.4351199462446163,-0.40565946378642775,-1.6665882708779496,-1.991758355948803,1.3098318984922976,1.2746486862894248,1.0305259194574683
0.2254169167655296,-1.5456360122923645,-0.568840052927519,-0.4206360668506449,-1.5724548533497196,-1.3379761813673974,0.15966234171610147,1.1340199572518128
0.36359755391301707,0.03670216368114448,0.3211083605395365,-0.41680168431766584,-1.5313074899758463,-0.4030418159432521,-0.4454659405989717,0.7830541393302042
-0.06637188985205825,-0.9930719539482338,-0.8169406542974319,2.2632529012197975,1.1957322748983399,0.45684248681977,1.3004295852347991,2.2012713266314394
0.6698040927493443,-1.9099559090999978,1.0641844468048027,-0.875534203306548,-0.709329036131229,0.1945627379749642,2.2932409657844692,0.6725226613690032
0.23456675216535228,1.383170263804202,-0.8433172428237689,1.5077710937726938,0.19806427842229207,-0.3858505338746395,-1.3986622477626818,-0.22251046042969497
-0.36585491464963427,0.3306048439282391,0.5489504189228789,-1.4092715928863533,0.25752163007141715,1.0338631727206118,0.9760189076545707,-1.0333907755229712
-1.2172251769971782,-2.56041865589098,0.9847304173727032,-2.077569832056629,0.22593215535148942,-0.1732525030755994,1.9039919179105778,-0.45950239294248413
0.0562601301642376,-0.11691636076500776,-0.26848806624212734,0.19016080478562855,1.0153819937597612,-0.3878350068384342,0.5619370319031068,0.33193625459086973
-0.2737963767613065,-0.8819364697921491,-1.0245942594399686,-1.7058601801462403,0.7025867073743041,-0.2697774454747738,-0.28230882988117884,0.7160524585108098
-0.18818330702594643,-1.4949771940688343,2.218439441730331,-0.7018137631293485,-0.5455913283830285,1.412880040006005,-1.4981949452208712,1.0128611284377793
0.09647149217080549,-2.1548804542693114,0.6085498636417351,0.9348826456678286,0.3259036589554694,-0.7161390774551838,0.29171969645957824,1.242250267226081
0.3864825744398126,-0.49779365000028997,0.8469899245031604,0.8836895143691991,1.4491637066019696,0.9295055975878509,-2.0539036688564813,-1.5642601757908317
0.3566647752828093,0.14621328089519936,0.6440766393821274,-0.06386570957568136,1.7645815021686666,0.35505899054828366,0.9558968321201239,-1.2785573312679863
-0.8976641868387691,1.6807542957578805,-1.592183550598256,1.030852383404551,0.6374173539965082,-0.1349079498546483,1.6452729793958172,1.9450908667369389
-1.1041637363026469,-0.2647276847350203,-1.5019471852176047,1.2604013738146849,0.9116338390312839,0.10619613972555546,1.3934649568139958,-0.798162578713393
0.7708300411385489,-0.6045990366799197,1.1170691333041989,-1.3990113632182248,0.08714452737855273,-0.6147624432940897,-0.8483620762207015,0.6084263011216953
-1.193297995532197,0.8772037699367613,-1.3596063312884512,-1.04850754587829,0.3763169600411723,-1.3268797280869096,0.5915558828898948,1.869428807298269
0.23659238829049228,-1.1979299674395167,-1.813236320596936,0.7640652264663261,-1.456448359209194,-0.7661385129209367,-1.4169064838480023,-1.1732298610544643
0.8032792493522055,0.7340511335528795,-0.3412991769235637,-0.18266390253541828,0.3585461447772429,-0.20304224609922125,-0.9109831776870353,0.6712674160268808
3.369180740207269,-0.9811600653619552,1.1982485265964395,-0.3148085501307745,-0.050286533696791216,-0.5280100771063826,-1.3766342972542576,-1.1436037368928673
0.5407975566283405,-0.07439583560540164,-0.2463662155285101,0.012023673162478049,1.080919907191966,-0.10927531309819473,0.5783621808624757,0.8612884687113012
-2.3397303988654827,0.5004131901364407,0.2024810753838489,0.1001441193079143,-1.3313214337355197,-1.7664880306625705,0.304942321654438,-0.1710987085888611
-0.10940592287565806,0.4532821534866514,-0.033194996938987316,-0.4292948113943885,-0.75594665946641,0.604432037965429,0.818338977154002,0.412853567360466
0.8332632394192477,-1.028435373812496,-1.3432414428588286,-0.522769241525915,0.176478370083503,1.6666399659942959,-0.9007377488026489,-0.47029009962005075
1.589565107784868,1.0186298517871766,0.6743098448543108,-0.7368864964253645,0.43716291793006967,-1.0035126124559755,1.6808213544448318,1.3065093032604962
0.5709567208513178,0.6332300882275365,-0.11209759739782492,-0.44122923866483577,-0.6392892230203795,0.17380793464326275,-2.146417743242234,0.5513396935021435
0.4443249403401695,0.18904491736341275,0.14592822542744538,0.3315367787538361,-0.10003797682041875,0.15569006205019556,0.8817785747223649,-0.5275827368784688
-0.3040271157468231,1.1022684827662006,1.5056373501269764,-0.2907657726050745,-1.8275588060322796,0.36461614516350416,1.418256230661374,0.9487743178279984
1.2595387689821238,-1.155402440724179,0.7007285746873404,0.08721978216546823,1.2005120571267862,-0.6671979749829438,-0.13041333460450535,0.24484502183972634
1.3750445432562726,0.06556422475276921,-0.45322890371090707,-0.5468825050474533,0.8810894323322005,-0.5411978856836215,0.42718386775887746,0.9995733304997774
-1.5325990113368786,-0.7755599831552035,-1.7263320640086823,0.12452515216007168,-1.2347742712303766,-1.2793156773629215,-0.3532602751062972,0.40442318864529336
-2.2335232266547966,-0.42256388229940023,0.6044726739487533,0.29529587997347784,0.4843374383450848,-0.21489335202555243,0.571818316999138,-1.419895504110978
1.1886313415676373,-0.294279315754792,0.9410432037608829,0.006203961796058584,0.3869112677333149,-1.1364976860667748,0.004287848022946836,-0.006123622056618049
-0.8117540050875929,-0.32209306517037106,-0.4488859652028071,1.0347330295968609,1.6989332244621995,-1.2714688533631657,1.2896705342151364,0.096226873583566
1.0038236785478307,-0.7689691029429355,-0.6791189306848681,1.325133000377265,-0.15368075261068576,1.3755160551052028,2.3205854290785544,-0.26943596293782573
-0.24989748880990542,0.9070112372893808,-1.0687176658102118,0.16298327703824517,-0.5304879647315205,0.09893664670885947,-0.8500685061126889,1.379502103576067
0.5374474036005902,0.030906818125625027,0.8536722991878861,-1.5805717216528998,1.5190109491615966,-0.6932032141507953,-0.9620258065267016,-0.4063432130208082
-0.22410886703149518,-1.2089521588575352,-1.5486456421245152,0.418832295101854,1.5063657580528298,-2.7481744834915287,1.4180628469286574,-0.19368780567113297
0.6205654323597147,-0.18662662448023146,1.0218751774074122,-0.6326695089608554,-1.4937078363955807,-0.6359579067295495,-0.4410806097494295,0.7758838969467421
0.8052153101399938,-0.026840495422513544,1.5262169354032873,0.359574315252826,1.7421384104469313,-1.1527971614767458,-0.850508597738241,0.4916226246625227
0.08312143135784875,1.9717795228949133,-0.7169427442799572,-0.3056512762049854,0.5942386744897753,-1.4297116487709063,0.15196405223826945,0.9696398752593912
0.4640602415383535,-0.23516399666770776,1.0230044115501091,0.8500548838331691,-0.6720729205523203,-0.08644613741837297,-0.6142365746744164,-1.659977149824884
0.5823954413094176,-0.6613392901845778,-1.1468110093986448,0.7745571274101402,-0.6326850870283426,1.13002457560272,-0.0044361868141613164,-0.7568144799589657
-1.2728356378849037,1.5259452977216141,-0.9339196422840036,0.7715456265673605,-0.3521337598192646,0.14617537305363681,0.4004608590889996,1.156317048858539
-0.39861584349023443,0.22133606235508604,0.01165850909856606,-0.5574367337548032,1.1345707790719197,0.4171759231753189,0.30118414725170545,0.040479876365558935
0.2224380284674459,-0.2446408127044108,1.9323291151323714,-1.382210238164454,1.3673361300530196,2.1306758793084177,-1.582880118394374,1.0615114760119422
-1.3582398510005969,0.1943827570135648,-0.4910240136490652,2.3709285699946006,0.6837301973069222,-2.1820524961386463,1.0913265023282803,-2.1298344868967476
-0.6787090597596364,0.3923715749858744,-0.6783775077613765,-0.99660357006881,-0.6137023328670721,0.6828697194327554,-0.5931319111085099,0.5372409778695714
-0.6708360185555196,0.36670336401573683,0.284944179499391,0.9781529977204478,0.9758411954761904,0.2893079876665092,-0.8597579377783524,-0.7269132608529211
-0.38608024348338305,2.3790362021418567,0.5307204037245854,-0.96541008477872,0.45817185962207085,0.301107337078124,-1.0786772498745176,0.06932124645791762
0.464740428671988,-0.1396410147706273,0.3729726353571971,-1.3501051181344943,-1.5501213142114645,-1.5820297055155432,-0.890064993059486,1.7313902785428983
1.8747553054374353,-0.42484017051418826,1.772409871711996,-0.5982014993959847,-1.504770484837986,-0.7753993588252089,-0.8173259615557269,1.2444345374718047
-0.24518489808071978,-0.7337131772330067,-1.128186758220732,0.1272358531391925,-0.25254841608831263,-0.6751603764813506,-0.589849712194222,0.8399916176738907
2.079036491866821,-1.0543456341401671,2.0165582393325763,-0.38967030703552497,-0.5307293538538931,0.8554057568757483,-0.46109484967487413,0.5996137538464249
-0.1049092402653597,0.48111856475839176,-0.22010192060124703,0.27104498698020807,-0.46456394490952646,0.34384140495805193,-1.1015271624161935,-0.40938291641118996
-1.6635154019508607,-1.7805496773595928,1.2233028279002855,1.0867334477759414,-0.1322444698981532,-0.35305283008203453,-0.06313179821449767,-3.114007172201626
0.38228545557179183,0.9076707607131612,1.0959390893305891,0.7570282458713038,0.14056260734380344,0.8185448031267976,1.5686303517774236,-1.0939465012477299
-1.4425906405310365,-0.04581069666345676,-0.8345687332616578,-0.20444591499241305,0.717605041123983,0.6368313269541382,0.26440668508110987,0.42970591737744035
-1.145624455657253,-0.7585993862192101,-1.3779308248432103,0.19276690506935054,0.22234792367655604,0.7097741571013668,0.8373582648454817,-0.5941094135528425
0.7629812617709506,0.5216195739166819,1.1869961727154326,0.04699514716416984,0.9530939306595787,1.0367375451875624,1.164369427635903,-0.4224286700468224
0.052149492942051706,-1.1124009934590129,-1.1863714053553789,-0.013927305397249125,1.9496319118390266,0.06000708430282927,-1.2352820060380638,-1.401069832540917
0.9061519161912192,-0.6154066409212242,-1.349053178084618,-0.09528900312304392,-0.5530266047547499,0.3038745003100202,0.7572742441623,-1.4177968969481298
-1.4860502979860095,-1.156757630197861,-0.17460088412600097,-1.7627688329348166,-2.5956498431489505,0.7880194141061035,0.760746536988252,-0.4400603346180291
0.8382461289402545,-1.0946532613024909,1.1474619020859542,-0.18232827180240965,-1.1748389562489523,-1.1391410914330287,0.8576596985955439,-0.7472587408620558
2.535212244669168,-2.2706000679574667,1.7241685782205791,-0.14514752588110724,-0.21094491824890046,-0.45707418435007585,0.9618483136627693,0.3773704755327543
0.4086594978798448,-0.5853216604956966,1.3621280070472184,-1.1143506193477697,-0.5691993003056856,-1.6310010211880657,0.11371118244685874,0.4960951794764538
0.9986246854557862,3.86925323126725,0.3242129097707585,2.2457647665074782,0.1827995358437978,-0.9376909556282071,0.7195360770538016,-0.7116314950843059
0.8875439505505239,0.7923934621626526,0.7301635997361765,-0.8289779127518344,1.6849635668152176,0.2669918564941484,2.450572239306793,0.7853188229578646
-1.4887704282231076,-0.4968083899686352,0.8148939623693876,2.161610958376774,0.920682801514582,-1.3600497159056244,0.27618112803132994,-1.1614186889180727
0.6956714299784343,-0.4526472112616677,-0.08293290723654266,0.16152079164071376,0.4718340220145344,3.334445230566072,-0.49264561892524056,-1.6404173909335569
-0.3916553918900952,-0.3240038078448555,0.49711191576156366,0.48830497013588664,0.5184674202767996,-1.833301767492263,0.3491246914958369,0.5142541350893064
-1.246328114924601,-1.6617461086285905,-0.8291745687688078,-0.330088087970623,-0.5106493209047127,0.5140947227776222,1.6787995894159664,-0.17123214072087772
-0.9651472618891613,-1.1768585531350113,-0.18877459978131092,-0.8909388030528992,-0.8669722101217983,0.6542631712133071,1.0164476552506094,2.64610047144809
-0.7041581398112401,1.5180494288027917,-0.8558076240596342,0.14197231091726756,0.12504425728541824,-1.5766805682847764,-0.305598518478983,-3.1943503632807837
0.38171897431698176,-0.3554205543404854,-0.025391253928528115,-0.3472078719942015,0.19176379224008866,1.1654120465435436,-0.12166011764835362,-1.3305238264939532
-1.0531347462075173,1.3422741244824146,-0.5422374384228773,0.6664686380055974,0.33834034097292437,2.708482708192596,-0.36695383990893693,0.6911430393122652
-1.279475046106968,0.3427875386269767,0.8992664603979494,0.7827285021319824,0.09144361710378025,0.0856935135794209,-2.013999959513107,-0.04977071558867576
-0.32611180965090975,0.008458945906981225,-1.0223959683129662,1.064615600622427,0.678873534587848,0.8604056157242209,1.365178449956875,0.5715417962009579
-1.228311261130438,0.46730880510805234,-2.532555521303137,1.259518282499144,2.0478213395208775,1.0394339347349968,-1.4505388358842788,-0.02027791644466607
-0.6408725997214257,-0.06775172624475663,0.9650217753439212,0.5357693127691237,0.24587614371167982,-0.9061345901408285,-0.7120573338253615,0.023277984699669612
-2.011913346364138,1.0816764141056692,-0.24893565243076582,0.7378383824712361,-0.25207522642275465,1.1664493934610634,-0.21307282460312935,1.2377514403135343
0.5105195791819167,-1.8706878192372658,-0.11624535060003449,0.8841771766714105,1.2267934681207595,1.5779617321783386,0.8477450647474356,0.22449589359320427
0.5509633781555485,-1.005904934703544,0.2950426740398427,1.4680214555307685,-1.1190476929191207,-0.6949578368139028,-0.5098465045204541,1.3515965215086791
-1.5518455347964009,0.6005687828673205,0.08677799405367065,-0.9432149443638411,-1.1027824344081336,0.9189361137964075,0.162033047836904,0.02461767136113079
1.7253322557934927,-0.2762935388829758,0.14264382696179229,0.6291613991146696,0.004545241181711369,0.84591694015006,-0.14908675826359616,0.06356252545228432
0.28651802103935353,0.42652787115904345,-0.6085047010074364,-0.5224651440539443,-0.7977466406929679,-2.3341623912707172,-1.6608793874002163,0.09732598954748174
1.935874945824157,-1.2818316077452507,-0.2670669949773193,-0.09462354600446805,2.998409665408481,0.9850971789587843,0.21102737313684178,-0.8609215137215648
-0.12380175909781892,-1.465378833105151,0.762609104018832,0.10045895434712261,-0.19184308804152123,0.24876679644863128,-1.5801717742915424,2.0797808459305713
0.19415662321449695,0.3777798374585086,-1.2310358386054296,-0.28426281002015147,1.0484139560480397,0.7178998207170385,-0.8957860805765605,0.570016771392149
-1.8426112560110646,0.6223884570889906,0.17181967290598177,-0.309672177726781,0.20734242558419286,-0.48180457984366454,0.13802346233778867,0.24812864360679066
0.3982571268505696,-1.0109525276533875,0.3335574672653012,1.1375553775082479,0.09830156608956711,-0.8374151924020224,-0.9914915219275822,-1.042870075841406
-0.8215059130672179,-2.0148350525960907,0.6997135830414675,1.5935924327433417,-1.224853824062997,-0.4628551487049034,0.2083441199958168,0.8425407692726936
-0.5590314604324373,-1.189593696070074,-1.9616025724228128,0.9185618789855772,0.5616772774604645,0.24744135894621547,-0.14067887682494257,-0.30887757393113047
0.7626267220900562,-0.8276001268528651,-1.1222560673864903,1.3535056989650749,-1.2191930480987423,0.5766884881050014,1.9830058317738366,1.667646734548697
-0.506508115803728,1.1599835379221712,-0.28412914477553786,-1.5655254902069249,-0.7616923418392023,-0.6578290044201259,0.45986651718531807,0.022661566539550523
0.7306319241427291,-2.2047811631806593,0.7521962890343385,0.587088901132243,0.2719424624935171,-0.4341632573114936,-1.839803573268353,-1.364084909999583
-0.9495902456442533,0.0488802225220617,0.04583534323580625,-1.5185653289342307,-1.2023019846194942,0.24238238889287844,0.4008506463334537,-1.9410876915198376
1.1898109195783177,0.19022981430736835,-1.3244683984685206,-0.8811822549847749,-0.6408038919138684,1.1906282228558887,-1.294036941200862,-1.1220350660613332
0.20907726803494506,0.3984527990353153,1.1873575924900133,-0.8999126543218167,-1.4372017568256121,0.2807623205541147,-2.239803706251389,-1.4838268620728874
-2.200363889700045,0.28046093809720063,0.2727775618860693,0.6721312969611987,-1.0314048436272472,-0.32207447323109556,1.0389819602612096,1.0125119479612625
1.1911280742440058,0.46889970271757553,-0.17223859411266107,-1.3172953241387813,-1.8023492364077893,1.4113694839811262,0.16259410881905453,0.48165875058344726
-0.7527420444605081,1.5191846391043025,-0.5839741963678904,-0.3120916743794656,1.1187458516321604,0.17379318450000697,-1.9899561967806978,-1.7275958071282738
0.2720240954086628,-2.0479525595899757,-0.14624398018903356,-0.655948438456586,-1.7286197453397536,-2.041579231098411,0.8216633009102627,-1.1290764303054452
-0.19706567952661902,-0.7099411293336465,0.0050690868628018365,0.8900636336567624,0.3139075072209824,-0.5197530501890799,-1.2348068218129618,0.43715507493753547
-0.8820787752083032,1.1339428827157976,0.2661739964234229,1.2350015536602832,0.0689834423728931,-0.5869403922956229,1.5288431712791932,-0.09770325362356604
-1.099906820758223,-0.716734889298081,1.9854793984594137,0.005830649203052957,0.7929620940964154,0.10807279844731413,0.6379866551829699,-0.6276758580868386
0.5342460379698568,0.09176449259307877,-0.8042944984474006,0.554305193177835,0.8559684100985723,-0.4432121911504144,1.0740160431163939,0.09105374478938824
-0.05740009463252593,-0.020609962368591406,-0.279143584961319,-0.6077810742075217,-0.5034585200476811,0.09011399918944465,-0.8358132905585843,0.997235042132858
-0.11588789409220407,-0.255893265076657,-0.052266809367979436,-0.06155686278399809,0.5762367195480594,0.21815935059299213,-1.5827720080957381,-1.8450255798058182
0.2517567617770321,-0.799732378690017,-0.949590083573785,-0.2663888202907038,2.4344992855536445,-0.2529929091915796,0.40182760921046645,1.4260409831394416
-0.8872240205527138,-0.8824072014330588,0.5464724757976273,0.6272863786288627,-0.38866926059644047,1.9147908593553014,0.41926475575125116,-0.05702007000499787
0.18027241951420908,0.7115076805740925,-0.8088614372817517,0.8808122801695338,-1.281224347402422,0.3489333999709077,0.36168630046389866,1.666030780695658
-1.0089990786817187,1.162136641886988,1.5279843422549362,-0.1755039888285296,0.5092655867085936,0.6986593210210275,0.08687572243191867,-0.6864842704462426
0.5169741193480383,1.5106735143995587,-1.002519354334703,-0.3680799028791104,0.16018590654912493,-2.5305807272807823,-0.25518460946845506,-0.26060426392133584
0.9630007301884091,-0.20206261286013436,-1.1826848840335888,-0.5846808084190368,0.6730340799579546,1.6490597677043697,1.4516447896813647,-1.9949704958353882
0.7725091686838849,0.9728333463557796,0.27773915257691517,-0.20288613061332542,-2.5498675848733425,-1.83228582653105,1.0027398816391861,0.6705562032722461
0.7835802977105167,-0.4413662405786996,0.299165115770257,0.05180123637631343,-1.0110275552600538,0.23385800628322598,0.1597911529628455,-0.57765151351327
-0.19819835020645316,-0.7143310445777977,0.6900407096274175,0.6722116831032077,0.6156772687608557,-0.5703643700395016,0.126481216944382,-1.5313359581354944
1.1387325689412244,-0.5471300257379649,-0.5634194544302348,-1.3867257784885023,-2.4840590237817457,0.73050627100402,-1.149720992602031,-0.982478663821705
0.5366410741302761,0.27180658884877773,0.012642706077739839,-0.8871878794765528,0.9374900022056776,0.47619372568845764,-0.39135076705384053,-0.1221218830771711
-1.2971830622907954,-2.484329321570663,0.22681951775994158,0.06821199972744635,0.09183245664959602,-0.03642205749731001,1.503819392916722,-0.24817607613902587
-1.2514026157851144,1.3138536040414297,-0.27384436985954147,-0.6578029786442285,-0.483340471295161,-0.9933994265332105,0.7401871065967,0.46129085793471397
-0.41273053046676766,0.12117304806626794,-1.2895540935418996,0.5234841705751,0.1431732325101259,-0.8276275296749611,-1.1760876342073079,0.0405253153215628
-0.3764389964905528,0.1949901738224898,-1.9645844381302455,-0.8600578049847619,-0.5869708888570888,0.4402431698193171,-0.42967278832495326,3.1986755013823043
-0.6942773475273161,-0.26621575154936805,-0.12834554562397227,-0.11426295260194134,0.3612756938337729,0.9446795602914667,0.8029853846944209,-0.11472181915656578
-2.1336309649482925,-0.4707511172436804,1.0625470772562131,0.5840064269326369,-0.5324245326014245,1.82365537097912,0.44933746368366295,-1.7117138026306595
-1.163065883980719,-0.6134588584942864,-1.7649943393376337,0.6424819475323036,-0.8191060985132478,-1.8035804320879256,-0.6418953922853616,0.3177866907158332
-0.2317367908263787,-1.1285164796721454,-0.5790861285816941,0.04911515537357717,0.02272619299356795,-0.5428603747718719,0.7524328292017012,1.4391067288232309
0.8603827838710278,0.5101251710732508,1.5590834080840903,-1.4971794823630082,-0.7551322650547367,-1.763311771517316,-0.2842816003193665,2.06074665007369
-0.7988569494978089,-0.5723686087700611,0.46465257596172144,1.5478676271920684,0.6840876446732814,-0.18416362870457811,0.6860143550505193,-0.9544398514788612
-0.4255779375310319,1.3794184867518198,1.8910848127110411,0.6908744928381361,-0.0897530779693004,1.0805643973600978,0.3822402464768967,-0.9775490579378848
0.9145197567106235,-0.3971534355851821,-1.5397416587895283,1.3051907077530067,-0.7117033900412754,-0.7522961575451396,-0.6728300389078726,1.2741290551095317
0.18466447024489113,1.0035413305633831,0.2638797773083657,-1.6224165828718538,-0.4000814538730903,0.6127223676194107,0.0717490125753733,-0.14162568564735675
0.7533600425940535,-0.5100883319883924,0.03337967515505968,0.2567156035168277,-1.1500898769075987,0.3394687729667726,-0.4245068736016522,0.6635527732219025
-0.4650142642108488,0.2234221337864742,-1.2635592471038983,-0.613570974545794,-0.022914747320849423,0.5073192113746003,-0.29080172730701354,-0.6087865257685054
0.24518028268808564,2.774247192974919,-2.477071063125342,0.10413332407073969,0.5031247082487197,1.0266929795216493,0.4403309305107257,0.6379229634153488
0.9971610971655898,0.11831579634505629,-0.3442854459963715,-0.7152088066900879,-0.9241861760344563,-2.913261132608147,1.533465090010645,0.7168250826252686
-2.715784021991932,-0.3329173592933072,-0.6429961614597574,2.0583965037188428,0.13071200352301568,-0.7505293136106352,-1.8779592159597658,-0.03393562275676188
-2.762658973432991,0.6552038213248298,-1.0965764372432953,-0.45042550843208257,-0.7618141363249405,0.7791463783279435,1.026039925338762,-1.9165213289761729
-0.1984373894789354,1.0857787343684144,0.3098343625830644,-0.4341610332398134,0.298180611410918,0.8446954506934332,-1.7591396660913972,-0.639336637986594
-0.6218640497976257,-2.228463071249479,-0.06272636994259644,-0.3628783768429652,-0.3353871573770732,0.9257889776636761,1.2830215311324713,-0.8801424024941695
-0.8377106052964596,0.8455083534640825,-0.7654180629591647,-0.4440033337598082,0.27274380025770123,-0.12638957459517333,1.2547837732849283,0.39291889345987063
1.7449154212017242,0.07520744206347184,-0.620654970683236,0.7270957152145511,-0.5485729073421668,-0.6630641768027485,-0.10668009922753195,-1.3735250172578648
1.242145315264554,0.25360000395860627,-1.6132145575954238,-1.433425416432409,0.5276127942539486,-1.3523985804000906,0.6530286076917311,1.329131965471555
-0.127609706574848,0.6036743448348348,-0.03451120915597637,-0.46291383533934627,-1.0867401010917346,1.369335567706498,-0.2667139244529235,-1.0249355953448325
1.6269507876060896,0.2783053790304335,1.3815067722744339,-1.0527279296275907,0.00600977781120059,0.23348442885598458,0.143021871201795,-0.9695317161405111
-0.02512558742029694,-1.4125525837086614,1.1193134713277306,1.7203925889312666,0.2288612165081259,-0.6081807477533716,-2.3078971928390994,-2.758939225697393
0.2662416847759498,-0.6437532435535236,-0.3080407915402936,0.5564779093766563,0.8798485105356094,-0.5275287530189627,0.2008149443969684,-0.3371401442415416
0.3464673720907983,-1.8797388429267707,-0.5139786929352086,0.8200363410515825,-0.24240494076861877,-0.47622542512102645,0.45410849870100545,-0.3241507241769767
0.9488857208316926,-0.7181354359965288,-0.23337815407069606,-1.1340972430630587,-0.8715239371383974,0.061106555509710204,1.9612647868374218,0.5246917145218571
-1.1728352208646846,0.121738887857989,-0.4913013302096687,1.430863306541586,0.9135893811635968,0.4329048602932042,0.7774541853787105,-0.769230695345371
-0.5082528817613224,0.37477578268920847,-0.4102065511350524,1.0888927417685195,-0.7008186440015106,2.097101369688811,-1.4760407417475,0.512432060335255
-0.7282057163181039,-1.761558041395147,-0.31854684468769917,-1.750069570889504,0.9006141858546642,0.6180021459279358,0.4072820638263367,-0.7727296710148105
0.6129734764548344,0.35743151217465713,0.6833372786627618,-2.640425671780921,0.8840781712401824,0.47216164772403146,-0.4094937916525841,-0.612079282029302
0.6254775176497666,-2.4260021175775837,0.714724631952276,0.973987242334581,1.4407419831787247,0.08294016829322137,1.3563690426822177,-0.35620117815148944
-0.9768864536143916,-0.29804002506540117,-0.88257885826239,0.18973761698949562,-0.12565618495285674,0.18203075329954438,0.6791795609587964,0.3232560075003076
-0.46570492685081616,0.126645080746997,1.112284263843944,-0.008948945561511103,-0.2913862009878685,0.5416458336110264,-0.08998964559543288,0.529210420278559
1.3247040385292406,1.84317328465497,-0.5874931907635023,1.432817494807883,-1.8458064665501248,-1.1680297111539404,-1.235367315392913,-0.08936178479003674
-0.02419917700254343,-0.22964277099330233,0.8808491060372816,0.045485005949097344,-0.6231805733106734,0.7613762610803069,-0.5208262549278492,2.2738049152332422
-0.796922555855786,-0.3495598007909149,-1.4544060956057452,-2.0350581905427028,-1.0136222908759505,2.0938353527911047,0.6710576851997285,-1.6131873195955724
-1.6756887145955712,0.05804226861254142,0.09338355267937479,0.2751321207194305,0.07742794241429228,-1.3949114830576237,0.2601502947877078,-0.029795454846604362
0.42809945759967777,-0.8045985710645653,-1.6464833106327388,-0.3532797154697111,-0.30382426124342277,-1.5857731255001497,0.15995100313878693,-0.5410292855425596
-0.36295247376805223,-0.7926098713863575,-0.8489764259239722,-0.15479571438043518,-2.253936577849282,0.15543882913344906,1.2891062441165317,0.4472502793345821
-0.7623878518441942,0.04762726434751121,2.382164270337166,-1.7092254898837527,-0.509902634912305,0.39365304778587173,-0.5408528225965277,-0.12109353559753251
0.967037523445703,1.7112064850466122,-0.9774190113000403,-2.563776835129231,1.1759111029256404,0.036291409499301236,-0.9481944832142932,-0.6727223730932149
2.1701702530642324,-0.24472215902829558,-0.08899056286637425,0.18972199207185828,-1.0599278747701173,0.7001699370980192,-0.7618384751672007,0.4249664457361346
-1.7377569924121024,-2.195262703493481,1.5347221406609197,1.5916639366109855,-1.216038529074662,0.189836483725027,-1.2525332676420293,-1.7499274725523506
-0.1742051058309216,0.17808203444941464,0.21227268340304922,1.3747434933508458,-1.9705405080153549,-0.756703961483345,0.7363092712039309,-1.0202678008437487
-1.0346346163414093,1.1663488272678841,0.6859027329442888,-0.022138717812369896,0.8855557773311776,2.1629610900853753,1.2888531885823409,-0.4479586881862739
-0.7959516053469186,-0.26274587210161965,0.19701899379797794,0.13183784244802402,-1.0218740226919085,-0.4088693326907505,0.8956454004018429,1.2981312825714102
0.24642049600281876,0.6447889099310885,-1.4255814725113176,1.408683172404488,-1.1142418688851552,-0.21652699616036197,-0.8617595870321046,0.5160301600546398
0.87614844052058,-0.8322847186383141,-1.3874756204779632,-0.825507921656598,0.12225648360874396,-0.599379055288844,-0.5998070071944117,-1.561203475597929
0.9939617626632925,0.018745122741932466,0.2620470265660218,0.014288858646404013,-1.203042544387188,0.8712395138514463,1.483673808254576,0.7982200544521103
-0.5549956501258253,0.9780653170585776,-0.49610508233444583,-1.30438381117604,-1.6800785072764066,1.5084260542977117,1.309561055265642,1.96389582933914
0.42719867856551386,0.07755245175760792,-1.638684211236141,-0.8825951014931932,0.9989362272690332,-0.6574360690039999,-0.9111549142442953,-1.3493707701478315
-0.144007858147652,-0.06426484206610761,1.4212940030929304,-1.3602724329677631,0.577508785690021,-0.32528506230161036,-0.0818828520974923,0.4876528729184237
0.8162586494226903,0.39796806185637285,0.06575090863432674,-0.4007449350393782,0.48037401110555444,0.09354851041058537,-0.48235158778363557,-0.8120259726191703
-0.009390173072968614,1.2061442938407543,0.8922105305302517,-0.5855515660552988,-0.7410659488433132,0.978480080778295,0.3662631445136532,0.06868093658661106
0.6824178988761687,0.9277068613235656,1.4645596774207852,-0.4219832359098682,1.17944998435517,0.2866287266174808,1.011610285331364,0.9443473183380552
-1.0096750669888814,0.5779516855840874,0.384710516308122,-0.40681934587586166,0.2689913864610361,-0.1410994838394411,0.31007933435982316,0.661054763607262
-3.424846138971611,1.2431051874894503,0.8448823881808379,-0.06005251896682166,1.002788950051473,1.9616916776713877,-0.6530427695500698,-1.2481411921703698
-0.8530373815015234,0.18420334638342267,-0.13627935866535015,2.3476246825928166,-0.7737925136060005,1.0033142372944912,1.123042034133598,-0.5770930404657
0.1158625810061738,-0.5034527915423174,-0.37905309545487503,0.9858773901697137,-0.7107378311002247,-1.4102090167620795,-0.2735441193506311,0.00047373200632877153
0.5712658470376151,0.7422361984392722,-0.4210137843863458,0.08352477179407797,0.39603163990471035,-1.9272580076051,-1.3492007347722765,-0.6344651761150751
-1.795787755359503,-1.0947758412767126,0.5703781882770111,-0.5816887209101206,0.09119469840038735,-0.8054828923359498,1.3804523290793964,-0.8430935691875086
1.3790982654500277,-0.5234325667701559,1.5542562327267146,1.4722333463135264,0.0379687509803608,-0.6770192935004941,-0.32783960133691964,1.8043991083531974
-1.085076598506451,-0.7215986884380207,-0.9241183399319303,-1.1204365763439823,0.24919232136993094,-0.60741070794577,0.6991348789074677,-0.9458721509311967
1.9974670014360723,-0.7173993279395776,-1.0073146360316956,-0.0035782475784772523,1.5909411296336549,0.7375002502628529,-0.014556178031330214,-1.0839142568894078
-1.1766767674178902,-0.5228582738273215,0.17407600549476654,0.691290804683012,-0.6645455027791468,-1.1313423968194372,-0.9405532329764339,0.23043028961124679
1.439782744035445,0.2387625347311238,0.8766913225737166,-1.8015484974161424,0.8181572871153189,-0.38214940214104187,0.44913469971113956,-1.0805317543240178
0.8171220584421994,0.26037209410786666,0.6414931948231588,-1.6061025415016519,1.2924792807039864,0.39275949424841256,-0.041681182871529325,-0.5186159758769804
1.001252322806905,-0.9391223124994783,0.46565055040580405,-0.6756913957914005,1.5784271665068514,-0.9478791733777324,-0.04494653762110006,-0.6682434483810552
-0.615549980319806,0.37051630209845726,0.8309547518574312,1.449992624232114,-0.030490029262836962,0.17043571472621857,-1.1506601063229953,0.020047920574194994
-1.045493259898193,-0.4941709870087464,-0.34046986228084525,1.1554408061253723,0.09439764002665774,-0.6270647365754812,1.4000570625552264,-3.144627518032659
0.35677309176027167,-1.4033415039187829,-0.7750233115228441,0.01580369376592461,0.21861500260027622,-0.8974527287016364,1.7271259448279153,0.2913350845545127
0.522891065827603,-1.8765626065602945,2.2579992792018126,3.0300780423762586,-2.2178643285850232,0.9300034132152211,2.524312975934529,-2.7103255351675535
0.18667223926852394,-0.11238945590031908,2.7598088222588997,-0.40283575977235353,0.29729041753723245,-1.2984603504642227,-0.44841517626901506,1.1983564062580598
0.8260260369766945,0.14737276639276012,0.20473767947726784,-0.33508632247167003,0.23692797884058173,0.21506301546475687,-0.40893873797791247,0.1385338892013619
0.08139820179225601,-0.3160465227795422,-0.36971265474182247,0.24718179390083286,-1.2872104249566467,1.7094803718738623,0.7645543741689775,-2.0324260128644984
-0.32859703751864716,1.465121016767375,-0.5983013609113119,-1.973437410096061,-0.9212698111300609,-0.7417091376891913,-1.0255396707573092,0.5288568730989699
1.1455955313822794,0.018929537618020242,0.3105645631833093,1.0160788438060222,-0.5485210352513535,0.16341646928071782,-0.4810163569244938,0.9800233675298956
1.1924615262267118,-0.7102565672714953,-1.461486429162941,-0.7736656354665367,-0.5323727840491415,-0.03643355432919665,0.5610231147924223,-0.40446964900243615
0.8641140909201066,0.7407845971033816,-1.6660345252899718,0.9925903764650149,0.25776587128553397,-0.29379072420277635,-0.5192305037717915,-0.04444215005005882
-1.3163706214369002,2.217191666240327,0.15950138330593594,-0.3763183824976557,-2.000052254097862,1.1001021630905263,-1.0356497309328683,0.47814917301967325
0.5046364365940762,-1.6083045052094551,1.236430448237335,-0.5905914993273306,-0.9705136165108651,-0.08882779860117095,-0.14461314907025022,-0.013480355416723181
0.223413237914581,-0.8700242275335424,0.37974450849025176,-1.7472426937091667,-0.7912314190477922,-0.428579336379377,1.1579724914640508,-2.012407594443814
-0.40280535056807376,0.394664301578324,-0.037371587508089124,-0.4561523104173223,0.27482989191489665,-2.1999155550000333,0.2050278202909329,-0.47523606871774954
0.4538709589890852,1.3309675527873865,-0.25769877622225507,-0.3568125538681083,-0.23239543904747095,-0.9514096809121981,-1.9844838859262057,0.34381451531785034
0.1277739302051839,1.2201840772298178,-1.3299692315600418,-0.8933262199379349,-0.8439635439358295,0.3861100731911862,0.19077031629000624,0.525413441964468
0.18024206997713588,0.1113373599963042,-1.035598260816104,3.067958164860733,0.4807102296682112,0.592802621793126,-0.023482027937855865,-0.6512069544503019
0.46368714830832664,0.14771863173485583,-0.5985632486232334,2.0085948878088056,-1.3859267801270199,0.4593143303288358,-0.2789048239759,-0.13984134724758096
-0.4989945262213431,1.4664730640840251,0.27402429665721706,0.1785653672887061,1.7957868882404706,1.314434767300244,1.0655228089112372,-1.1520591047679576
-0.8401640329455314,-0.22072169405423567,1.0109803755716926,-0.763571318182445,0.6672412899819443,-0.2716720253327667,0.6853700559968663,0.48766217763620484
-0.3579585882186825,0.15769478882845422,-0.8166321906233859,-1.039689928215267,-0.924712400497941,-0.13680587910273487,-0.2903676313318982,-0.3159350575153162
-0.017685792969229973,-1.263078304188407,-1.0010132785084924,1.7801445880299869,-1.0118507372809928,1.6260367058311864,0.7841017855225787,0.09660753895596313
-1.402789926708982,0.1519447793586146,-0.22450538988812244,0.09742882241336781,-0.6220622879529348,0.24802403358395408,0.8705062629318194,-2.0663611912784163
-0.9261460140131692,-1.6806885152332096,-0.20814738909771463,0.7880103634146572,-1.4725626367007736,-0.6631464632115639,-0.556236791499238,-0.6134849903950738
1.5957087150216407,-0.7340820164424919,-0.838315367017153,0.5983848332065187,1.1827394520727676,-0.2825505552045054,-0.10165731437938261,1.0205178058954625
-0.9757714366780276,-0.060136797074030274,0.9066272010774109,2.4619275027924585,0.7537137351963907,-0.8800659868152116,-1.9433456975753114,-1.095676160735736
2.3162148637939164,-1.4211708422527134,0.39649084653154915,-1.236742632220501,1.4803176754517489,-1.2191445574445103,-0.9577476963656751,0.610738221710005
1.3253443667393785,0.5815873908062608,0.09963471401559397,-2.3099240963866627,-1.2712205189187973,-1.0289004638017796,-0.12980905503337625,-0.8737838914286349
0.48179841090261166,0.939405891759161,0.15821815047681914,0.015219154480325708,0.4286482480507845,0.3037315714951549,-0.21415893010546694,-1.9263660719418096
-0.8717073869436531,0.9332097279167231,1.0667493958157899,0.8070063858406297,-0.6343888798648499,0.03552105456536292,0.4037645531707033,0.5769223901627111
-0.30646774568643603,-0.5269382813070242,-0.35399637387601246,0.17290608793189688,1.010480769711823,-1.1916439696104493,-0.3605984037621735,1.0554858502964495
0.4047256721664007,-1.271179044488676,-0.9553765081592237,-0.6516955243290635,0.3220425629965179,0.40922310734640627,-1.0492203492045697,-0.6995730854426004
0.4895687329110166,0.3500436884817948,-1.3795665132435886,0.40643659828823,-0.2394103275749227,-0.5285019213649715,2.187783244684829,-1.4032831057290023
-2.9514293746516707,-0.3168695072731203,0.15090952971591348,-0.14657177379562958,1.5040118143277332,-1.0562486135200055,-0.4260252087848365,0.13301746854644478
-0.9093869015113493,-0.10539515829053804,1.4982806351606903,0.39192482612772667,-0.2119219120377696,-0.5182305774128381,0.9485303745031106,-0.47321110552552514
-0.21947268674604786,1.6896248498333566,0.16902380843656015,-0.43365717189917286,-0.9646458887677111,-2.0377697922493323,0.5518925091794994,0.36070976912883346
0.01182133514217357,-1.185145012127579,0.8675528655668776,-0.7889512808668098,0.33246542711575167,-1.677705296982118,1.106727518024204,-0.04239790654028371
-0.6069853192327134,-0.42621224508976385,1.1778331155057795,0.5204027041326093,0.8322258082397628,0.33786277205425524,-0.6005889009410517,2.2336241232504834
-1.0890626516511128,-0.25710491027957905,-0.029034448646841616,1.0866975439290185,2.368495669519871,-0.23874832738020113,-0.7933693069376125,0.9987076667948523
-0.5655867874192971,0.24902330603836503,-0.7752577045478325,0.34748431707036015,0.15814492494382673,0.5574811615723752,-0.4036309495775364,-0.8259612478068611
0.03778054750279544,-0.504658807181095,0.10685981714081032,0.37869560975938255,-1.912037152659268,0.3891850997733743,0.9386861118120852,0.8491886360509127
0.9110179202260877,0.8725192332445457,-1.0544601968245497,0.857476017644124,0.737673723751194,-1.3101920764658543,-0.06868965672638748,0.5103102331452416
-0.5874689732099591,-0.02664411182306509,-0.10406510183075013,-1.287238135776925,-0.024661682118480365,-0.17285558418727712,-0.8113369783762577,-0.48405288624485376
-0.2216574394218278,-0.3776512606207356,-0.7397813081084006,-2.0672717888148626,0.6334833485947122,-1.3585939872279578,-0.7931534447245442,-2.440563555028418
1.124029592609882,-0.24908427123571092,-1.384208351305715,0.7431521796197307,0.7829078004185638,-0.16035202922220199,-1.2128594616762545,-1.2339068728446498
0.5689780221996469,0.5633609726946686,1.5524302964331385,-0.1493793797189574,0.22279676064099999,0.2784689425951069,-2.951350836657957,0.42646361712547715
-0.5720251755742225,0.7783824165704217,0.5637069764146132,0.27169580858391723,-0.9553108939060816,-1.4180315980605926,-0.8007541938687815,1.7804999134705601
-0.7107598559962485,0.9947399737727369,0.2744334355354423,2.2644095234005284,1.2742696781445457,0.49593218808560074,-1.0333960544509553,0.6931508084832835
0.5322353266738102,-0.49651370138167816,-0.04563760258098684,0.34375740125372045,-1.700496280507426,0.9836704627829934,1.3138128969724492,0.35007378246253607
-0.4660365911918278,1.8441886013823285,-1.4814507636697465,1.2535203149638694,-0.5293306123665574,0.2900534963532928,-0.35420419101676126,0.6833854694937901
-1.4176443883102319,-0.3071490399766912,-0.6787915334144548,0.4563259123749052,-1.1830614731831277,-0.8756731267150227,-0.3928562035812062,1.221824385713118
-0.8957547222023127,0.6524182153478068,-0.4963835541708022,-0.27082608607211645,0.732303679101789,-1.2863225431758643,0.2570735869669205,1.7716866816783536
1.8292100283043358,-0.696025248083161,0.6948080228322386,-1.0177948436214284,0.251405882662998,-0.41100500427398584,2.200078768056463,-1.0984969714351442
-0.048480546674510606,0.21345433472155176,-1.681786964404795,-0.8116552699612813,0.5300434078666004,0.33680458564455035,0.5933595417802153,-0.8787979184412552
-0.39546338670760467,2.154750543720812,0.9931232599818602,-0.12387123068705502,-0.12004921957563275,0.011980292095270356,1.5092546727800074,0.0895382147291226
-0.7828926908809827,-0.27050703082697203,-0.9741211941512761,0.946193520749879,0.4170152247314451,0.20940334289614687,-1.1234054404981129,1.041920356404164
0.39301944202905986,0.9412432557359525,-0.5782512669921303,-0.2154827577343199,-0.7073517995791507,1.6985077416178425,0.2505934448032806,0.31088280289165676
-0.05206569656381535,0.03459236864295615,-0.07202994114074136,0.18923310599650528,-1.1675942073508023,-0.6766838240800411,0.5473736688309003,0.4275661196622989
-1.6186240589805656,-0.025932572420051918,-1.3376021994503782,-1.0470509208266774,0.3257246336804867,-0.16900970529425913,-0.8848853032891545,0.5505965404703207
2.0161175440348575,0.12613746333028172,0.751110359527837,0.11049518868708631,-0.9991220404251228,-1.996251950538104,1.4789515570711869,-0.6937932669738271
-0.15670655999701524,-0.5108114601211445,1.4691707324241445,-1.397394518153488,0.10951545651658454,0.0936636934250458,1.5080829751003397,0.7837765217127256
0.41937239701820417,2.3019231537103453,-0.21503210481265497,-0.0179162121103174,-0.5446567196186386,-0.6997216177769598,-0.2858502457409348,0.20074267232472245
0.23320263182067782,-1.3884362672494757,0.7955793427531628,-0.032539945300376724,-0.6538006622935152,-1.234046231157213,0.4854268800043446,-1.214745387564829
-0.7117760205809467,0.22856612963437944,-1.0289462098335491,-1.294240668401688,0.6212770453386931,0.3160027374787309,-0.12187031241951474,-1.2890031532349011
-1.2231998570717084,-0.7368795619249564,-0.1472966412019845,-1.0430898657730454,-0.37928011614527224,0.48299688124309675,0.10960234651433315,0.9671568312121158
-0.6746313817990464,-0.8119778071978112,-0.23438236236619103,-0.7593196428529545,-1.2953628309619734,-0.23208967404287442,1.1070571751790144,0.988786471909841
0.23209172879835707,-1.013436541079442,-0.6285788767174315,1.0530444534705414,2.2349060087344403,-0.5291232185857863,-0.5535904541035069,-0.9329495013677804
-1.000802032503917,1.1764111700648934,-0.3509838589244519,-0.8708032584449501,-0.2424095119540047,0.6480414427639264,0.2516744751191418,-0.08602124818129973
-0.1341883975936174,-0.04732344414749178,2.5103949948254662,-1.0036517612935236,2.798675871231133,1.556095558234712,1.5433590635187493,-1.4926233491273135
-0.1376491992956286,0.5402993249980719,-0.2829547701914428,-0.8776942437536702,1.0440346247073606,1.2848962677094315,-0.11503639580501522,-0.04188320504999915
0.6669399705081617,-0.9920357383859536,0.39436078245516676,0.8639349504755641,-0.164628315504471,-1.2660880433338575,-0.21168177894394438,-1.6268870847499721
-0.3613323567651558,-0.17766605107486705,-0.1765531042805422,0.5225029405650102,1.638428143094937,-0.040573874262583985,-0.0751040224010177,1.4719386255296658
-2.1717311284154945,0.26997714036601744,0.4510868694354394,-0.2091804437717627,0.21882397841095588,-1.2044936759561062,-0.06575705200377832,-0.866855677657567
1.2648136094079079,-0.032083310039892676,0.23708840643915888,0.16651032380349465,-0.18820831097238372,0.8324729722094133,-0.3834446448381671,0.36463521870016674
0.48500162048935286,2.1232842791156865,1.675176377485425,-0.33585516535123106,0.11153630818307769,-0.3572234386845977,-0.09725849416252445,-0.8633885306574306
0.5096734758166637,-0.28416784274979806,-0.036501794110910826,1.729868405931016,1.7526860953638155,0.9445970416309768,1.1745183025807506,-0.16686180216182267
-0.004197259155320039,-1.3174040472035113,1.372032084274996,1.502676008230751,-0.2527159343327983,1.4212582379908263,-0.29335954086954735,1.0044866619518267
1.224749164611697,0.5543652040998122,-0.058812466296225836,-1.6454477084358434,0.09124071917613058,-1.058295425916833,0.8891974557502984,1.2551118969896462
-0.5871743045231281,-0.5591708630325077,0.012360125087007933,0.5201728898304253,0.31068905544597736,0.48848494898766187,0.6918977393730447,-1.805114350149626
-0.13281587423170976,-0.6715620446765901,-0.9067628845096534,-0.15549110458878868,0.13551012038131532,1.0097171325529861,-1.3423140493888792,1.4505920482387007
0.342423630444974,0.6046242226484829,0.7322193213664214,1.480462097657536,-0.502510566493294,-0.19169160703295465,0.9491246301073828,0.055814750745612554
-2.4171980660650205,-1.3180714860270157,-0.6033979840276619,1.7745639705546308,0.6903958568090779,0.06666358990165333,-2.498426694106899,0.9152886688257614
-1.1994053214297926,0.10572176231160091,1.3490791271552798,0.46574499350428905,0.2766721070514086,-0.19150658558255018,-0.40309728351171364,0.37553128356207993
0.1521901824407961,-1.6841700840961054,0.5997236446121718,-0.14030730470413558,1.220909578311605,-0.21430819579003071,0.7211355118397483,-0.19655503232669147
0.23569919761169184,0.8502171339446304,1.3508690104237697,1.0124186103770028,0.31948332447406746,-0.8220472496612174,0.7543117679118193,-0.41289453807122095
0.6550482444334744,1.2835303415713621,-0.04177776635184223,0.29703221277329367,-0.7587739441792214,-0.8757119913742082,1.5634153123900951,0.6976545874922899
1.6194282224680316,-1.0849043588789298,2.61328496871649,0.05079548183976626,-1.3063422485312701,-0.8092476910027602,2.043169547891438,-0.7560772318776973
1.1251028390433295,0.2793279979707737,-1.1319767036942021,-0.2584219424209858,-0.7447159279799177,-1.8946756740168198,0.2678647838451434,-1.0363839631989435
-0.9602857436544917,0.9850916769342807,-0.573010016292839,-1.2377189997372384,-0.44891322914661563,0.3648808910556029,-2.4789300634925917,0.25710054284456185
-0.5620374880854774,1.155120216830287,0.5570732935710391,-0.40820292046352624,0.9432200478051299,0.6564702686564711,0.7650092698261657,-0.43295735542955177
0.12244390548077493,0.6078430040335479,-0.830511274000508,-0.7405548989366436,-0.33060229754834397,-0.15706314312374897,1.043725011957863,-0.7614766850085576
-0.6217804016899862,-0.29247972853312465,1.476537680198325,-1.2443218052241547,-0.38994426636299623,1.6152067462886293,1.7025038674862751,1.2134068034448917
-0.13325452254956957,0.8919554828722285,-0.8093250189109048,0.7441792324929454,-1.167677020823755,-0.6313519812348878,0.4151245226946699,0.24590737710235164
1.328455609861479,-0.2235251620126588,-0.33967454459514396,0.030765328317875876,-0.7350552183212314,-0.11395842751723367,-1.132414112937728,-0.3982232030368164
-1.134118300862103,-0.7879275893818608,1.235301964057485,-1.9152932320564613,0.6172424700194479,1.1591245616017363,-0.7309600862288436,-0.06957152047083724
-0.17531738788497436,-1.0860684855562746,-0.17251110949102755,-0.4056956355524929,-1.0796720919745129,-1.3582864983700649,0.46167617532534316,-0.06606363051186206
-0.253959786599348,1.813461432214812,0.35086278803770876,-1.2500933458767531,-0.3718760641711729,-0.1655915894417532,-0.8514673262695057,1.6365918380274251
0.3496244578682985,1.0708600470036191,0.4211635386735496,0.8071111335957144,0.15792290361552813,0.7530093958388324,0.1147464294059376,-1.1037054832932451
0.5003614581709485,-1.84816050153103,0.47804009062555575,-0.5558721843474598,0.5590343949024146,0.13563097658202242,1.2181552091096721,-1.2492740677167076
0.7543146393496782,0.09484654702759546,-0.5945390351761881,0.42601590842825066,-0.429344579099135,-1.2599552003080272,-1.7702478136379916,-0.846703224424843
1.741850731040673,0.2092531733228321,0.32969607799056155,0.25912420603515557,0.1830100845180426,-0.09457432825267892,0.8788313067451636,-1.1734528095246626
0.005944951705341406,0.4954170867419453,0.21427433388763892,-1.743939650450163,0.24020013714709143,0.8413720444683623,-0.7820236977981475,0.1529842150992086
-0.7247730624227172,2.382867793110713,0.7538654595589608,-0.5092224758433687,1.5109035724711664,0.6541668739571233,0.5683122721989615,0.5027559602408584
0.7668167490479307,0.6577878273655793,0.29373950918640235,0.25475620684353,-0.16012259774384002,0.5743898069652174,-1.6282710153780837,1.1180480664623502
0.21712170849295137,-0.5500478315937932,-0.14396387999503452,-0.20774766386239976,0.2294099062718621,0.3305006572315509,0.3367741649811833,0.01373705210384414
-0.07083272816564315,0.7110196081788962,-0.5025116200070149,-2.4541216269962804,-1.1189256997844783,0.24640259217247995,-1.6745242885662162,0.4485927714875243
-0.39499622148223107,-0.5815956377522702,1.9190939781047334,-0.13469199044423735,1.1219944668769866,0.3827174277965447,-0.32545682669457854,0.9245598125064493
2.0235601881189798,0.998484652691605,0.40180692312478083,0.40908438606458825,1.2534411436350847,1.5261332016753617,0.3765123467875449,-0.0909294708243173
-0.18774398057915664,1.0216275263908692,0.1348741390686127,-0.05301969341395694,0.6229378706946731,-0.9441297689771744,0.8525229418965712,-1.1964356120482575
-0.9139618792033253,0.25324699418730334,-0.48224739350243434,3.396753125554838,1.3987459627648196,-2.1923191575600898,-1.8632551774850405,-0.0041602933542169455
1.150632690827925,0.10231988681944283,-1.2007489807334133,-0.45957152780005883,0.7342173952445713,-0.43916087461565373,-2.54372234462587,-0.5627866506126932
1.2471369360398155,-1.3988980578887675,0.8083488620537254,0.44317546890614884,2.017465875129386,-0.5889758805810458,1.8336974256630143,0.5015748114959478
0.6620142793439557,1.204421044851383,-1.9107800995236903,0.006229065631047949,-0.31850299632547685,1.569243136737184,-0.5740748205215422,2.6762042257657948
-1.7288144308664513,-0.9559441120634715,0.31135785032947755,-0.5887556091933717,1.9458667266843273,-2.1179736290459665,-0.07248010045243851,0.48567512519538875
-0.060787861990269934,-0.029802339875410155,0.5312953653419721,2.115112488952509,-0.30288742690803144,-1.5220392360039707,-2.266064634609197,1.7416087632928172
0.25912301151237094,-1.6053367488737054,1.1179462029947804,-0.807269021749873,-1.4028959742377103,0.41245902197742546,-1.8018640689443257,0.3394806232093019
-0.5603821765885453,0.20280887130376757,-0.1372851740130732,0.6089492900923272,0.7351473316161228,0.23981695326370045,1.2545612395108896,0.45081798028024717
-0.06523876743624459,-0.30698106912476725,-1.079101393946967,0.5318581739889982,-0.07932284609921482,-0.8990789798950864,0.8482896474391167,-0.575211381811947
1.2315164632369697,0.028311521962087766,1.2797176248293327,-0.1782835507873746,0.20014734958451252,-0.6308431502447924,0.6926533607960684,1.5266792503900213
1.0200469229722382,-0.46437339971650154,-0.6908543317073498,-0.7692669989567134,-3.1398379580789895,0.6813514899802494,-0.5450991685831017,-0.7391711597588443
0.28511930311643835,-1.8324074897175282,-0.6613277394836053,0.36060421669017034,-0.33567084837208433,0.41839107863748154,-0.452351169050706,-1.4153636086210186
-0.7984608880523273,-1.4568532447983744,1.1133427519570815,-1.1658240608222352,-0.7892070695464516,-0.10679937014294374,-1.7820441294035283,-1.0773675494338053
-1.1360338805740193,0.5184932803308903,0.07998966266193624,-0.6176459570127121,0.5788305568469073,0.671549515195911,1.171072407366162,0.6637729583306896
1.1457310221080643,0.7177153082299674,1.401634029621589,0.014296223483353541,1.1916456727531202,0.21246369618115413,-0.9193251876715198,2.2565136613094507
-0.7589074234756313,1.7946392957141326,-1.712013696900735,-1.655094143807343,-1.5082462451063723,-1.107456001677287,-0.7371249463586016,-0.3366354162366072
0.42466271406589523,-1.4357569997509874,1.6854417376466089,-1.1138105271344694,-0.9898881793786823,-0.1508642684327797,-0.4299878975780769,1.0478775500580717
-1.5705232000156102,-0.21332130294915752,-0.4325544331087784,1.580509589068545,0.8671379215598404,1.1697841750403393,1.4931187170676141,-0.9744840322306675
-0.4126720840885538,0.6893923931149839,-1.1604659966245818,1.799368602445089,0.0938508509438612,0.9812542664489919,-0.023110149737867028,0.7979701437985903
-1.6673388311678563,-0.5317711328104279,-1.0827594206048916,2.208910446186516,-0.8069685172164586,-2.87498292414131,1.0671761762535243,-0.26779081502928187
-0.5827321900565309,-2.4079037721786554,1.7092270094531496,0.46919518619609735,-1.5290424376694172,0.6788045448898551,0.8021131078309116,-1.0019650704052578
0.8940835337196427,-1.4590920271743277,-0.1305050209307456,0.030741021412121067,-1.2955361364647253,0.43097148230959664,0.8625156686597538,-1.1408905793973028
-2.535467416337724,-0.9675876497053342,0.17242709591236874,0.17482552225495165,0.03563163505559246,-0.21448086935792585,0.6534296457535873,-0.425867003365496
-0.7352561583137472,-1.2064254888426929,-0.6728358341517519,-0.28605778030258566,-1.367384490791434,-1.1194744675303832,-1.2836005887347917,-1.584735859958778
-1.9090474191313347,-0.8575820399440461,-0.48539550273171583,1.21733795477967,-0.8087931215770974,-0.7203843993896017,-2.2444754936302385,-0.6405859283322455
-1.0143758274058003,0.027783408322479154,-0.9976362947804458,0.15700528957463775,0.5505980825288582,0.3097144603929729,-1.935618796659841,1.01172946713957
0.3354890876998345,-1.385134372047898,-2.3071386705234076,-0.14835568071174635,-1.4635830915545276,0.23274944316217497,-0.615711960791088,-0.4348366475818372
-0.4593309900412401,-0.32324608832880725,-0.7888267420314775,0.36764394857964905,1.0095835572320775,-0.40191769158740154,-0.06319766542904871,-0.6188633192457441
1.0483357072601005,-0.3930018335618472,0.22490483510740733,0.8402862612401644,-1.5323599174615232,1.6961945071573297,0.42010401667680164,-0.21414722543393191
-1.3795434361546828,0.9015793708351477,-1.517130750655841,1.441239195572287,-1.8624236672579781,-0.02867888503742249,-0.6598461318515049,-0.02250262822356082
-0.18858204546811533,-1.084883938983841,-1.4061611942366121,-0.6181349077389844,0.7983398705716729,0.023361958746141137,0.32057862898640643,0.5509259267339179
-0.005458933184257123,0.20661288784227336,-0.3527587716806217,0.7266205964104508,0.5501964608476834,-0.08936409188013084,-1.9131700642016953,0.8094407382493846
-0.22484598107943043,-1.0874805717955855,-0.4998632511742613,-0.2552339689089392,0.0705479131421306,-0.2928720181959824,0.6008087178961559,-0.393948969372044
0.6621187389284713,0.5793086983628724,-0.001530892204458787,-0.057538742909625594,-1.3443053529968858,-1.0697856783216706,-0.5978580635439277,0.191221112722478
1.686417265470602,1.752836248958859,-1.067303628817275,0.3561168355330456,-0.4420752122273461,-0.7617996855992933,-0.3556224883131914,-0.7200745826459964
0.46193328961776925,-0.5134859611513821,1.5469834119070658,0.7882167660385996,-1.5664511113014108,-0.6124044269901523,-0.8722537515070427,-0.7002425211984923
-0.6218596403653913,-0.5855818012133555,0.24034107964918977,0.30217490271819875,-0.5432528100687889,-1.2641203532394534,0.5146285086693042,-0.6289964916104145
-1.6302787790825892,-1.5633768307934703,-0.5227333950958558,0.7736705371458298,1.1683915147964403,0.3470805529722073,0.07674043510683415,0.20359061542248696
-0.6931578409970522,-1.2228743295254283,0.5659919292678832,0.2669325776427466,0.26724320184076084,0.03132915940384335,-0.2213603096038539,-0.18069238554024367
-0.8031652932448922,-0.23301677663262757,-1.1375089353367147,1.8725324358211706,0.7653263668117555,0.6007621376728336,-0.13458759978355156,0.17767923418072504
1.7371155754332006,-0.25013199326394026,0.8047376723819758,-1.584489131730753,-0.3752380554776912,-2.2322811611671383,1.121473046967331,0.009753098370896789
-0.23189895645102418,-0.7179027518782021,0.4418254917799296,0.5908493696429142,-0.30315096954562043,0.4785207963174248,-0.41393014204090617,0.13966182751638007
0.0026576363549698266,0.6780400317884903,-1.330115798240396,-1.0982856448509075,-0.6006057662818085,1.33404403357325,-0.586369207743907,-1.3517779970695447
1.01670692701476,0.28152350815069727,1.22669070895572,-0.21371726514200803,-0.7857293040447838,-0.47585612422945495,-0.7085353131882844,-0.5361526510932936
0.6001710257699363,-1.9691387466400703,-0.19678796861612416,0.9210200861852067,-1.6128368848536427,0.8894509149022078,-0.2568716885818693,0.13445037254821682
-0.4478706453943655,0.6891144418190666,0.21934530875742875,-1.3078687918821517,1.0237334480079412,0.49715753302487015,0.09211311226074963,0.3425323466306672
0.8771059181379904,-0.437012639740174,-0.36273611845539694,-0.06844448713309872,-0.7785601920399953,-1.0643717639376815,-0.5493399934514365,1.0147041286085123
-0.7384291033327389,-0.08141753093176665,-0.0312863625466027,0.4590247019701004,-0.1840696770059713,-1.673006370450106,0.11095101636927124,1.1660300994341732
-0.4827734765632527,-0.19999895764196293,-1.5173220695723528,1.321682916352567,-0.12679479341357486,0.20482569694468108,-0.33154464014361545,1.4687858494964425
2.3593558858074806,1.4312654680068801,0.37097428260959975,0.2840616765962668,2.21415071609488,0.004817723739798931,0.2666279833202472,-1.9002144433894164
1.2551814722686994,-1.0570853239203517,-0.07276594259297442,0.3779674355131112,-0.967741546019641,-1.6022558249735388,0.4748937457043842,0.5416966669042487
1.186890170404759,-0.4853458323261403,-0.9739648678022544,-1.0638598358857358,1.121620997401385,1.5366196630416677,0.7696765561734871,-0.0977510746963116
-0.9778646001265873,-1.5157653263205952,-0.4818093111476124,-0.8776811993622463,2.4712533017592477,1.1158766787256722,0.10529920979678989,0.7693777101124424
-0.05406455519171533,-0.42559247039769443,0.24292303335615748,-0.2319759870154491,2.0748034524430423,-1.069163159528525,0.8773798568479668,-0.37533451004239893
0.0905648896339293,-0.17186547063333388,-1.4883369695147226,-0.6878745737869749,0.4970788064535672,0.6264665615993487,-1.6920602784882683,-0.9755860079114868
0.40792472774190647,-0.3245665394855463,-0.11795468395580815,-0.019235310281445785,-1.3917717734570283,-1.468787827307106,-0.044842073495312884,0.6003607109677818
-0.5226309808303392,1.2498200468208105,1.613276989881197,1.0390677395038648,0.7212704633178415,-1.3946215679480634,1.8123968631065759,-0.2186559078163793
0.7178179017318185,0.6396072693633249,-0.28268635009057896,0.4177553214275642,0.19842577062911665,1.021223979262988,1.6678112859212424,0.37712161682231543
0.6216482169776297,-1.5754099899182152,0.346357916885004,-0.21246706693745843,-0.4861816242500322,0.5920898794282283,1.1990068161590357,0.7818419542875722
0.27308104387877996,-0.9176499776387886,-1.6240525840269016,-1.041944260872957,-0.06707345319534098,1.1640938661219364,-1.9255593962372421,0.4156430328117799
0.857991277292679,-0.27178231020949495,1.0993456082864268,-0.9438953697904773,0.23584220491558366,1.4856280337375118,2.129135593454988,-0.17260364652058563
0.39460453184128164,0.3293742685079519,-1.2519877779047466,-1.6878635787480034,0.5039171142810264,-1.4386704695663912,1.347748703788423,1.2346042348322923
-0.6395597533412114,-1.3115299635825306,1.1784015161227013,-0.018631233216843134,0.9501077820250023,0.3966463858125597,0.9890879070538215,0.25309068502057935
0.7814356852457361,0.41528732815042413,0.06050214742439429,-0.47434387269295875,-1.2320877176736276,0.4969699360528589,-0.038932330993989385,0.19977688586621564
2.3121097765092986,-0.37031211102452805,-0.9555384374446441,-1.2334050156267402,1.1400713007431467,0.4081846209228664,-0.5865829918371912,1.2564331568599305
-0.20308391308226525,-0.26205294586309374,-2.8650942425094104,-0.36327314453631476,1.5818144452172163,1.520618763417523,1.3164717618509543,0.26239114366375643
0.9594282909880879,-0.4866176536139442,0.016952728674872432,-0.08201934979449171,-0.33333845251480587,-0.7567387888684373,0.5269148403857579,-0.36180655109284166
0.10860890078719317,-0.5624018320605281,-1.2758444480228872,0.44636966795447786,0.5208016701808967,1.440530278248549,0.5237244350973859,0.8633801629485583
0.03269424943733631,-0.4593380552625002,0.4549383920599509,0.5163935392487353,0.30922915129364864,0.05953240393152519,0.24649990960607282,1.3322642814048413
-1.2055009462359096,-1.2382576211241652,-0.48482371893822873,-1.0846998646009043,0.5211026915255621,0.3201038102813604,-0.1353245013477271,-1.2333203715052912
-0.9110221134543214,1.0238148285513444,0.721279255810342,1.6348435978753746,0.4863493728780291,0.28763124391006323,-0.3602967494678285,-0.7571121435598183
0.16755743133582393,2.009455007896779,-1.407149455474127,-0.5610159926517062,0.2644366156200306,0.4737508965082812,-0.03590321174497724,0.15610163750555014
0.5478055979358853,-1.770381214783474,0.06373661738954901,-0.8537630996524778,-0.20080478364208354,0.2665199441669558,-0.7858667444503011,0.4066751639074471
0.3386503240541048,0.15185355978942006,0.22071154714717792,0.24965637721974349,1.2427992945008055,-1.6760707319787718,0.8756548176744816,0.5317559711646329
0.30565588940067134,-0.3080911518127665,-1.6785452658275661,0.6829673549788472,-0.3241593555832495,-0.8548325595679909,1.5006321179086424,0.6576111045510964
-1.088656357082439,0.4494054781243372,-0.626714301245083,1.7274590720218712,-0.5098973533185438,-0.1532991622008163,0.624318012923879,-0.7240396714357265
-0.3387469405629502,0.8931565099111664,0.05372161313534279,-1.1896534375987584,0.5608548916490794,-0.44930279493728453,1.5786572487122206,-1.0908609237681757
0.7283089316216109,0.9836404118092104,0.8733003584391641,0.48788741414333375,0.6473355429165811,0.7702821400719206,0.20000487589334034,1.3954642695920816
-0.4555088242017958,0.28906759093786966,1.4523731711022398,1.4272490195384102,1.5485465684225899,-0.009406763033748017,-0.8703773145760426,2.8481599520656573
0.44668375715171815,0.33035436765862347,-0.8928198778893555,-0.4072765522284389,1.1862814362683753,0.5545201519386554,1.2257857121230786,-0.43611823476400324
0.09698255772139108,0.29506197193976624,0.49339250357305625,0.589845367964622,-0.9467847759277673,0.3263537804660274,0.8567916177627706,-1.5473097170377819
0.8159357547771919,-0.017039261170738135,0.6414361842207881,0.9376639112077629,-0.45323420722774854,-0.37996435216260743,-1.2377715239246607,0.2234085175606741
-0.8413166831137211,0.6680125997082952,-0.27905175402819543,-0.8461738880021433,0.6663249076351591,0.44773487909465703,0.2799086653167887,0.752111335965413
-0.4223321162264568,-0.7765506366597259,0.6404958834205067,-1.175236011859024,-0.19901675630535753,-0.7575171423526148,2.389816812813733,0.09099116860610303
-0.6755702961829182,0.5549703480070477,-0.7868164720124041,-1.3922946598141845,0.9292751164786495,1.1239915608686242,-0.3470944015737603,-1.0525265398121322
1.6205259667105254,-0.5486306003609694,0.6529804878217824,-1.2106628403920994,0.014632044538572404,0.25195626303943225,1.5355418006023964,0.583722978793135
0.4842396402127082,-1.3425256110651353,-2.1443484028354174,-0.015621255746971355,0.2802711154682969,0.21724390439088465,1.1252036500767133,0.3733035429445639
-0.8161264856492116,1.0318996076933984,-0.9877353548462978,-1.5242358704759973,0.2535496135848185,0.157145024115475,1.225152767829843,-1.7035978236628013
0.6044053043600749,-0.013303042028066259,-0.7301681349148285,-0.19041680082300258,-0.3900573275618393,-0.27387077971084856,-1.9088542209800223,0.9138465805336591
0.39237113438150145,-2.311056109352858,-0.333479004525711,-1.0029751834653036,1.365622402211742,-1.5496566131542144,1.1567170202512387,1.824603246438521
-0.5266062988446646,1.1228420654434745,0.6406098050911482,-0.5287162038192651,-0.15990860219024586,-0.12405024330305099,-0.08141394659270774,-0.130026056695064
-1.6170024663563762,-0.9569472761523596,-1.4623289633307284,0.3127796292460773,-0.6131885913881971,-0.4556641680791858,0.8733666151544619,0.7364697837682862
0.09203731976446367,-0.13840349825076387,-0.47038955764608165,1.611621114859685,0.08522888574848415,1.1037440363303725,0.7961959740798337,0.31787746338344536
0.9629605501422502,-0.036890134958259706,-2.0498309778188792,-0.05755145297063344,-2.5466014444901086,0.9717415416139535,0.18044306504171662,0.40361961896139836
-0.3169422006786683,-0.618957623485487,-1.6997052694912498,-0.19991431430014928,0.131399276546553,1.53997308103121,0.11740174695100322,-0.15740650246782595
-1.1705250319359115,-1.0076626554198749,-0.4058270128927036,0.4447332078706909,0.6615577627473225,1.3741229582890555,-1.8806980916273548,-0.5235930977339862
0.14120636340839726,0.7636786372018036,0.9900344542492253,-1.3995624156385311,1.9853191830908536,-0.8884253863614755,-1.04641584344727,-1.3872275472397002
0.19048656836991965,-0.10037617777905028,-0.00547735051649731,1.0752661132470966,-2.1958674053243152,0.5903023888190854,0.3722934219365971,-0.8131610162808884
0.08674398651793917,0.28434100435831605,-1.103139353887725,0.179276393067247,0.06399875753822114,0.3521729860694583,0.6959395824392753,0.25409796441186877
-0.8182944490214454,0.33962385115170796,1.101572648872039,-1.0332486093652316,-0.6773024637593255,-1.071427237442853,0.6881769608003239,-0.7014745458860326
0.2548711932995491,0.4883761931405248,-0.4423722334844515,-1.5026632901327837,0.5401018915300164,-0.9492071271431147,1.1772017616863717,1.2800437613923963
-0.7652926843027144,-0.7748224063728927,1.5653796888218816,-0.7026626934080976,-1.3957019383891511,-0.3015810667365035,1.0943120472545809,0.6852443037008011
-1.2250133747241427,-0.29237017129741444,-1.3850027818547341,-0.01230849150367645,0.7917557849751639,0.7461851652920982,1.8372699880062537,-0.16379195133770966
-1.08523219281404,1.1377360967748977,-0.5110663050775845,-1.6540493403544476,-1.0794469528016397,0.3036761953488795,-0.2790842327833293,0.8076944379896212
1.5012742851969885,-1.2961041513469234,0.31003748221771427,0.026224791108354382,-0.06663104942611658,0.6470140910966934,0.5942709052276322,-0.7622647593866275
0.3845495285878629,0.15659501198235531,-0.46035058090048003,0.3441907786891111,-1.6047498500491952,-0.32007264877341035,-0.3073813225389168,1.094437409063786
-0.20956365215635467,-0.35197460127178254,-1.0025520280130302,0.2998961181364293,-1.0854170434043415,0.35686925373748396,-0.27983659283723583,-1.0469553375025031
1.4473378389011273,-0.3771084783282401,0.8028492271319863,0.37645942472374055,0.42278418887395736,1.0644950650833565,-0.049111627628280585,-1.9304227019302151
0.708773768626397,0.9807058416045107,-0.33095870223884494,-0.15642033349032927,0.23333339204733314,1.9092218409497796,-0.030633809696910194,-1.0716739697604427
0.641036406999391,1.1686344091699286,-0.7545407512421121,-0.6417671344260495,-1.361259092100885,-1.3914735405686194,-0.1505658460108977,-0.9779970012697502
2.0463511546034896,-0.29501900813383364,-3.395385529486486,1.6984289105316779,-0.001719038069793896,-1.2708425762480575,0.6368003599457182,0.09626115174920499
-0.6264671466938472,0.5991064897170905,1.4065777410146327,-0.49278165967520055,-0.6588260329161081,-0.2364788690819176,-0.7556700321542437,-0.2172343223573261
0.7376389253681557,-2.07864717338263,0.25364523447875953,-0.4753291036336985,0.5014602632134572,0.10917665463208813,1.203211274479317,-3.234396888298473
-0.3081786103104002,1.0334344355646763,0.47306315800896537,2.1608203711861798,0.3622795994975671,0.25403719291555266,1.5117750498057363,0.7031859923394318
-0.2555903331472504,0.6371503996780639,-0.5610210851807282,0.6939750732560452,0.1849835062890827,-0.4169242243418765,0.42883299644355044,0.14560930466865946
-1.3452788009778465,1.4180987350523317,-0.38104013565178196,1.6975884741434766,-0.6839220042964231,1.5360969287304491,0.9576429803110894,-1.5666669474967057
-1.757244319642472,-0.272725171741488,-0.3782014696685292,0.20151816355823254,-1.2109410059838477,0.1479075561750268,-1.8804501167358025,0.0771108971977871
-1.604919311254969,-1.3423362826424279,0.9918965722947977,-0.45577063574617,0.8270860092361568,-1.684278389880377,0.4855663180099839,-0.7882202727812382
-1.7745452435153886,0.26055767993925893,-1.768629652193394,-0.7009969583663048,-0.19792894386221022,-0.8435585611891548,1.182464071502047,-1.7625427937625318
-0.7640159255220366,0.213790943208502,0.22499788761793402,1.8859033961480558,-0.6615139560012275,1.6866704993600998,-1.3471612214324342,-1.4095082713636196
-3.0355195956060443,0.007491058502537787,1.861722684554187,1.0680027405678532,0.11069031675244317,-2.459617089811153,1.0109356400863296,-1.2791578007260396
-0.3287177892983363,0.4687905177717526,-1.7654686768534456,1.9408386806063722,-0.8904175374107842,0.2870903028610687,-0.015518118546686303,-1.686895590792192
0.18078781219367082,-0.7621646966496648,-0.37055380909877605,-0.12823806858764095,0.8315634388173478,-1.1694879681893755,-0.16461921192749684,0.14300030695604604
-0.03264470485975248,0.900228910728885,0.29650216733433343,0.29235749828959495,-1.4252772527394553,0.04682034667437832,-0.8902404270559413,0.5396053170019818
-0.08547847820942689,-0.7280420176337722,-1.20972168938697,0.3910069768127601,1.2455986535982533,0.9103318167094289,2.335874358357177,0.17001788852527075
-0.0865251234498139,-0.02405461717179902,-1.3881316155593602,-0.052653250416031284,0.39943683382516465,-0.9113804578089628,0.19751094084492835,0.061285823682325484
0.11655284578006819,-0.9087246132608549,1.106428197313514,-1.166730605129281,1.1717122537824867,1.2054923215908593,-0.4674236675696309,0.043519570638781965
0.43925845576379935,-0.3580892731898144,0.1562136952406368,-0.6858975937470588,0.07274444019150011,-0.3043977454446392,-0.19080678849863805,-1.3873523896923081
0.8612562839360562,-0.4207793215182697,-0.7867479624251382,0.4383535991662044,1.1415645093339375,0.5597348774472548,0.5472430511537131,-1.3086696367268267
0.419912789069773,-2.0803783863466005,-1.2342090519466415,0.22255241030949358,1.220723457810346,-1.738903444775547,0.7906743941196008,2.3213569604899384
0.8410106816445669,-0.5736030677721704,0.33356591746349123,0.6817045769987836,0.45058436843655236,-0.4806012671100676,0.5364299167666506,0.5812889408769508
1.689514514070276,-1.6226513065725756,-0.7570541700718523,-1.3550325679012802,-0.02051565697577442,0.15044018593297526,-0.08988199087811224,-1.03745874984575
-0.8588361374951818,-0.24594915229836187,0.1680156912728552,-1.074246255696389,1.4221471147135452,0.8539535001279576,-0.6815202293384491,-2.0324448541649436
0.36829720301432034,0.24362720179336184,-0.8769230651863061,0.8842727334053201,1.0418730366286924,0.048191226804357716,0.1481564526839663,1.1460848637988619
-0.6105877888748792,0.5630671176770217,-0.04164253277618814,-0.5983876713178617,-0.4825638628716662,-0.6287063755547796,1.7242928993648499,-1.18439381741117
1.3940645036116377,0.21105453994353757,0.1727420184881615,1.4491833085210988,-0.9712374487514301,-1.7458910722104273,0.6814236219091434,-0.20349084068163711
1.9352227142489602,0.6600280938034984,1.713180282914539,-0.5266341682841107,-0.6958130327483146,-1.5137221755953747,1.4474667047347753,0.11836649059951161
0.09834974943151262,-0.7868306236481957,0.4896698257069352,-0.32569063733096487,0.5442552833705726,-1.8177399429599728,-0.3836703791240317,0.2672102496786187
-0.38771871109816397,0.299424087883801,-0.033804732173833486,-1.0615529427744153,0.09944656066436408,-0.1388151114830601,-0.42437065545378805,0.8973949356511081
0.24680744631471963,0.4458680817256798,-1.8640662713453935,-0.5072344180013059,-1.2132197530164734,-0.39285425658763984,-0.6631963300304244,0.4987914668124712
1.0039103136575689,-0.6640483199971539,0.8290539072347105,0.5709672009258108,0.5977517607778917,-0.4306269387826145,0.9107365895599837,0.05983794671541422
0.9322525991010002,-0.23639598473932802,0.6029370726644961,-1.2002752516860506,2.0251697244261555,0.03279225411041158,0.40889680399599293,0.4887706918021869
0.45539205621769574,0.7444041856863094,1.556117785921632,-1.875398502966906,-2.507788027270233,-0.8934834510107509,-0.3077442771259038,1.0777275780008155
0.7179677775565506,1.2704032481135377,0.7723149229950733,-1.3166578406592633,0.6340360622992429,1.7323877793067097,-0.607056843319021,-0.6122732870812864
-2.082281168419663,0.5221182992859682,0.28906230186364557,1.2017021867379782,-0.4742903375167873,0.3622252119489148,-0.6733695938142458,-0.8616042218436489
-1.4704070250462136,-0.14147718810637605,-2.3066200191414645,-1.476094338120364,0.6567444093608057,0.4703810476821461,-0.5062949875893689,0.3576712371838497
1.8560260906693535,1.1648519455100064,1.1932640869828288,0.18072424431027104,0.4817961655318264,-1.2529068056710417,0.23999320660165824,0.1053453819832609
-1.0725080025902811,-0.3295649522279732,-1.7532370259326615,-0.17007967559203735,-0.42107889715045593,-0.8976465222003335,-0.7759566889505589,0.9182780633401698
0.9696962909351233,1.3637460552052125,-0.6512479550481031,0.6532964169786404,-0.47000076259589485,-0.7801160298937881,-0.09019432425147812,-1.2460921364004711
-0.2719065815188747,0.7400100575364382,0.4479897918345444,-0.9842747397927174,0.9603185951420644,-0.1837379684928591,-0.2401730084324526,-0.8497993421318328
-0.8436666655384981,0.20334808864106624,-0.2133766464447645,-1.7806559936085609,0.7005421767995199,1.5557936921455768,-0.2826664009412537,0.8432986601072352
2.5297197905531967,-0.04258873952301236,1.4280768587147263,1.5788227655746223,0.6014017505907995,-1.0097533938335903,0.8833320421288147,0.2586949403492798
-0.29482902574561903,-0.2681580816471437,0.015726922836000683,0.13334754991205036,2.3083175841009065,0.9377844571093741,-1.5380604561704607,-0.08933756745598706
0.11785749951565005,1.3314118762538705,-0.6529375318465507,-0.13937580406558037,-0.009431341782627084,-0.5944941902878469,-0.288422922917782,0.0682977480470238
-0.2114142749273695,-0.4450974721570144,0.4906873353746414,0.021663007299052864,-0.42395123180250815,-0.6110345339227538,0.028444809482755098,2.1549645195128906
-0.8675565342592758,-1.4198672894529885,2.136185580843031,1.177399508129121,-0.6341025255180439,-2.873884555935718,1.8853555909586635,-1.4623554062816497
0.005704723436058319,-0.9641706654151783,-0.9687591086426791,-0.44989630908731687,-0.8388188387299511,-0.21104478543556765,-1.1153294267007567,0.4300140355256056
-1.5087798719365337,-1.9604378675313452,1.2571080346098624,-3.3702099387581743,0.9655663540226036,0.8317353267532551,0.1945436568569902,-0.8992497874066605
-0.4554933632516596,0.5113858530755905,-0.7053836071504975,-0.650670266486539,0.4914910703665628,-0.023049953991647325,-0.7242403609021937,-0.047611349627587264
-2.195674464056444,0.7627803014930786,1.2096869853439571,0.18149985609685163,-0.06068014790439383,1.1226921088643824,-0.9032471657087185,-0.8913009365962379
-0.4396291800199872,1.437637519496663,2.526681160864503,-0.140765234151153,1.6519348680111834,0.17235764426858088,0.8397251714283361,-0.07011360850838598
0.8088252375620494,-2.015273565338117,0.44465124226101327,-0.6835310962490126,1.691996548804556,2.922610356084918,0.00819304516377366,-1.295589399948561
1.3027520763357014,-0.8489059350964409,-0.9575756030456609,-0.8352872814775574,0.22713351708563292,1.1325476188740509,-0.3128420085701064,0.3747375246799917
-1.1163047010332994,-1.2575183867166364,0.7640425841008162,0.15055599291428573,-1.375225020004015,0.17515446846504487,-0.7037425971218318,0.9096020711307834
0.4216853634791269,0.481910949497414,-0.5869740053786707,-0.9220325766079549,0.04364732993940779,0.5130767235974996,0.4093682066819219,-0.12227838204001366
2.249454382927711,0.14877987296795286,0.313253960116315,-1.3853942374901929,1.2723236777300244,0.11459712864474081,1.1770852955277165,-0.6937677279023623
-0.6966999827410882,0.03377740771928747,0.21312117196417757,0.3929659571563477,-0.744103371789708,-0.24983067225490013,-0.5324640271000535,-0.17162668286477353
0.6929889241204622,-0.10678404771491878,-1.2990625457066003,-0.21662124080789427,-1.1759041736783895,1.5381548820734392,-0.018055775920455486,-1.4193134235200056
0.7487066139264078,-2.3790036843330715,-1.7740688531885593,-1.1255023880646178,1.2071617861298871,0.7106291067288061,0.5340655085833083,-0.3828603868379625
1.3167331718192208,-0.3615201103428404,1.2831268525692798,-0.4833693648332499,-0.8520098209996231,2.5715794411936317,0.453243607041551,-1.2363019519184701
-1.063836318456726,-1.0180613699797412,0.6247323264831423,-0.3491679390011177,0.7197879094116075,-1.3629412932623648,-1.3758869624878383,-0.7803537043170082
0.02730647923764357,-1.4073022617245778,-1.5566141234816082,1.2629695761474424,1.5119102987410293,-0.5694485965366943,0.7848041260141145,-0.09762351597751348
-1.2562756609863988,-0.21531424058280327,-0.0899093566264207,1.0163649768378722,-1.1336234229830078,-0.8325823604420793,1.3323485709802523,-0.45532401148904683
0.45638077339115374,-0.19379243393141032,1.8422151607724688,0.600399983506516,2.1249589634469714,0.14044272379601624,-0.35575686490404845,1.1375611129118546
1.9278243776603787,1.4024876228123866,0.5992706640082692,-1.2578788655358393,0.26933727940911234,-1.0820955241400816,1.912634738064026,2.6046573213757425
0.9321118286248175,1.2034177609388717,-1.494762466060713,1.1372519341144118,-2.822253755129468,0.4448726988207966,0.9777634208397182,-0.40548306128326594
0.8050327447099905,-1.1079897157822414,0.5286391638059351,-0.18541884261522207,0.541487195410726,1.8482142926926688,-0.25045635058879506,1.35883252378194
1.12518886181763,1.437559195278207,0.06425913670624415,1.2417424569446336,1.2711016776928235,0.8185730566213458,0.6108309179720764,0.4237174249928884
-0.33469051067438876,-1.43009384929053,-1.1646367786023106,0.5095630464620338,0.8145493928554995,-0.26119555058031124,1.7921018779215028,1.2042040355736778
0.22086731175810026,0.146549126169732,-0.08356342692703542,-1.9742202258269037,-0.8306194755307982,-1.2991263593068638,-1.1217595312617705,-0.22035261535196168
0.6796921832741643,0.7969594919964698,-0.8944401322744856,-0.750827768030952,0.051534103233370036,0.7779128235011186,-0.8377230976496985,-0.36840293774765914
-0.9070948335610468,-0.21906352638547816,0.6585713339400596,-1.5449933621419403,-1.066288337646925,1.1887547051446707,-0.015155033158056344,1.263705552277152
1.0118757798949343,0.6176715477599275,0.3703486609947747,-0.06964454634849931,-1.1314500339802718,1.196077028491104,0.16988644759692756,1.0389337860255836
-1.3482998379793867,0.5749382051564387,-0.3770028693236267,0.20609767281839875,-1.2880878053363924,0.619125285589469,1.2706638362051506,-0.57778830402692
-1.4435244697749654,0.7821087351122512,-1.5292555613084953,0.11987914694703244,0.43068786690740035,0.49411763881173904,-0.3476728452247586,-2.120271071389852
-0.6700813295896357,1.0410867569451163,-0.1870058517058949,-0.3203010221751995,1.756924970566903,0.17099611362344327,-0.7109148178284285,0.9268118167416053
0.27658680249131606,2.5102582203810675,0.21384980889035055,-0.43905803158677925,0.8058964378765954,0.4524262942299996,-0.9448185569075439,1.7060369748932191
1.901621374916047,2.1847209503810014,0.8284398074837676,-1.0901946380452807,-0.8159528474432705,-0.1559290502707656,0.5849242612966412,0.7438165221550833
-0.12849144258403164,-0.9132971641954238,0.2955464387740495,0.153826368141712,1.099578458591951,0.628804853648637,-1.1990818567670298,-0.9559993585120561
1.0722906947752089,0.23307636546593366,1.0561837681867552,-1.1780553035903194,-0.653397694544856,-1.7826786801517585,-0.5372046690876002,-0.23081585946041933
0.0014659783537679261,0.4721295320015674,1.0400975662606606,0.5022329559989598,-1.089762201556412,-0.7062509612919986,-0.1192856935572446,-0.03008061359802894
1.3226963698899084,1.205770440088138,-1.2151697980991703,-0.8436488659042699,0.8801369371617647,-0.2187338320129633,0.6621464251781941,0.28371404995132443
0.26344666859565463,0.10288105450517149,-1.9128059304463174,-1.2888529421673902,-0.004743813524677017,0.9263499358590073,-0.11438400048650676,0.19262572533616049
-1.3981824168613057,-0.5621380205849819,0.23363990658080874,0.00811984704605833,0.4040375452739588,0.9265353223413116,0.3357628110131759,0.7166257257259917
-0.0150475226319437,-0.27242095916201026,-0.2791159655907057,0.5015710363428956,1.5549265180486158,1.1069433894129317,0.13982134682032527,-0.17942163613414452
-0.6896311038814197,-0.08275842781522275,-1.062376634948958,0.21998827490967302,-0.3950958451764536,-0.7375344339584404,0.12976040093103136,-1.3012570307938076
0.20795847387046945,1.3490660109926798,-1.7568459629094646,1.1937501326270288,0.19417682384733878,-0.8226303453801151,0.14545130741422138,-0.0174122517167759
0.018530848166867054,-0.30667216173593914,-0.7394932975597573,-0.2916624261873427,0.47097892938234415,1.368979530402495,-0.2846617576830034,-0.5717684345166807
0.9318731291342217,-0.8340279604468918,1.1939578660880543,-1.2197889636649633,1.1746974542922863,0.0383310297918061,-0.7019568307143107,-2.1885800261536175
1.3146588856598225,0.3636124603725531,0.501478782643266,-0.746903465825048,1.6194587527929551,-1.199384547638561,-0.19682462798501402,-0.12446804305247806
-0.7514824577206355,0.6073098220119204,-0.8929811319998472,0.49630420492332883,-0.009593188985054934,-0.6261234013431732,0.1997809564517684,-2.4165664631611206
1.2997435434923075,-0.2962107816818933,1.0837910742074668,0.22212944307567511,0.2981332916567115,-0.39926273625006126,-1.3432662141568321,0.4238333027539436
1.1823446532950037,-0.6356400511789956,-0.6572245201398151,1.6976736526442464,1.0659053129066398,-0.5021694065638699,-0.4132614175569914,-2.1481358146570546
0.040241464515501854,-1.082354615043951,-0.029794221695109636,-1.9649954696702623,-0.8367570370162863,0.10235645520994156,-0.31871795001492853,-0.008236838154556303
-0.26477217127657693,-0.030562943278131974,-0.09058192142456091,-0.6085021254997304,0.08612744109127989,-1.067741683717536,-0.5376244634098241,1.3794227775835428
1.5214106483034304,-0.8547638294966711,0.8967248161056787,0.5737677707245716,0.43512469850219904,1.6870496382159073,-0.0019231768588038659,0.6088903497766737
-0.9112364737902211,-1.4001521390557927,-1.7913298200322387,0.795290408635567,-1.1859127601530037,-0.9226949066894049,-1.5165653727041777,1.3152160322687483
-0.2865599126963583,0.5967252241383156,0.5030804236032774,-1.3175486084509307,0.21099049385332277,0.18780732764528033,-0.3350334344727349,-0.3798363274665815
0.676593610825654,-1.5735545363645473,-1.5428166232244094,-0.936065005086714,0.2874972725142514,-0.07883385556688978,0.9941556478965912,-0.4592037744102681
0.6873940972682516,1.1083356973588887,1.5265947697646833,0.23838573671999586,-0.9446928130012006,-0.0230833767176304,-0.7298547931536444,-1.3114276524325303
1.4661303714617049,0.8419020876582174,-0.24127016620929137,0.15788498320649044,-0.43101001529068916,-1.117605213444649,0.39012258035033937,0.30431125320708885
-0.8229492949392212,-2.7826310321407983,0.6091774539876121,-0.46140582055898355,0.4957856235461119,0.1529143543441873,0.7723239358438461,-0.015393294110165802
1.27762446400133,-1.8158688136511736,0.36222845378162044,-0.6230426560907862,-1.3382062024777575,-0.5191712643603332,-1.031353411445542,-0.7429721371223115
0.6260008247313071,1.543467403461344,-0.33929923642310356,-1.5200891265240424,0.531025689324518,-0.30448566757695245,-0.08929718693238654,1.4205458700572007
-0.015501680920511166,-0.9237548689693142,2.0722684993556144,1.232307725291481,-0.46580171300118434,-0.7659036534669377,-1.4846090711137832,0.10717203958679289
0.8353977217885459,-0.2307712800342984,0.38327228342887465,0.9314196430059951,-0.6007160012013428,-0.4059256894793478,0.12407685293246264,-0.22470822195103898
0.40196071145218554,-0.1897857993690429,-1.6278887686258434,0.7430753786664122,-0.4013553741173603,0.1323925909776121,-0.32069018737691324,1.0276189116998382
0.09355942079689421,-0.5129106213809368,0.359162277667356,2.3617446468248184,-0.5139218476558804,-0.049481226437457705,-0.09167816745526264,0.593014384063175
0.44630555135609323,0.06626584335611681,0.10437271199542683,2.2434644018207957,0.7928614229715549,-1.2406571042587942,0.3971198971872189,0.2505772884380619
0.8702321288428694,-1.0853270341243537,-0.1570240230190999,0.14730527569350574,1.0715506694361072,0.09689169846783646,2.719827470188447,0.5508917091026934
-1.2118151569383022,0.3286939132768677,-1.6859532821550154,0.7706864505643177,-1.2490059681184664,1.6531281576932617,-0.9006976594440496,0.16502826835056636
1.7643327013134642,-0.33670715510594895,1.7012676836154317,-0.8049649755365434,0.07587359305520867,-1.8329075626001268,-1.7623719725486247,0.33104269034215894
1.8197928250605842,0.6586161307755967,0.3370523916736171,-0.15369015067635936,-0.575066840204488,-1.3933068265713549,-0.11094108944164893,0.046247576914692334
0.007870287573295881,-0.6421983927416582,0.5812781753467154,-1.0797940980385579,1.2275981373242997,0.3401329235535411,1.7416985614304943,0.49437766828756413
-1.9151397170643534,2.012307902774271,-0.46101842642151974,0.7932799754037771,-0.1517519076193924,0.1508436260328648,0.15487867893512136,-0.4602771326298221
-0.2930374974063504,1.1767470474577373,0.16526274050753448,0.28570062514696304,1.1071097473789766,0.4575882822798293,-0.3731404508551102,0.0669262806759019
0.416840343704997,0.6039942744798101,0.06279063716891525,0.5903797943668366,0.5038587375370035,-0.06950523688771232,-0.2933373153693186,0.8252259436294577
-0.44640062093178967,-0.4300038544400592,0.15511181047833988,-0.7051328453733129,0.40284886484544863,0.04524273621084239,0.25042277071544355,-0.5312846429665217
0.006819346506112631,0.06730583588008607,-1.5209607384508659,-0.7975137113049464,-0.7184101141488195,-1.7790837426891148,1.0374440864180816,0.2246407960166708
-0.6239271311988117,1.8992368659661556,0.7719361087324547,-0.1905018843397508,0.759511244197871,0.12495916766405231,-0.592769930309715,1.5697022550084903
-2.2011250484697102,-0.6276803478180096,1.7192413685874737,0.05044664312972942,0.5874548638313433,-0.6379851372478288,1.0014659927808918,-0.45927744946970006
0.5631721624564444,0.6396641411904176,1.0836827185505582,-2.0874595782669387,1.4306501235489835,-0.5240231468064508,0.7779321469348339,0.5192548698284958
1.8681482135981031,-0.21871283171496447,-1.0754137442527028,-1.9212209676816088,-0.5690430194167734,-0.37754232325200454,0.050453353912419216,-0.3567562679923792
0.5161316186307806,1.2970130643086268,-1.700867735493024,1.9681296729717574,-0.1924499969632912,0.5884037138182343,-0.06205009497498116,0.5479768704341298
0.9633840570601212,-0.7398929442900481,-1.252485413662279,0.33471959674831264,0.6022857274549401,-0.6431721381817013,0.27081529193932835,-1.2209435694767365
0.12860492102866017,-1.547874952671463,0.7560971653062544,-0.8573417365631905,0.9161715173717749,1.1383316566357864,-0.6691127741886858,-1.3924181027341958
-0.9922106888788085,0.1790703415808056,-0.45523781740979724,-0.7995357528231746,0.05161791307527936,-0.6398412486740256,-0.2768962224682662,0.9120775606630064
1.4367917567081623,-0.02408116077900168,-0.11427069723038576,1.085521552074035,-0.5208717054774554,0.800816920711945,1.2465160547137228,-1.3084158981069276
0.09296599460685968,-0.3143923841228444,-1.1607867233848466,0.4070563954309309,0.024789087865400954,-1.3170593261258496,1.5174497848900854,-1.1203813424456808
-2.4584573549642084,0.4621868486593837,0.015701657750302675,0.6958441066639294,0.12338885403746214,2.301252917380954,1.3592107608676198,-0.10865734974671531
-0.062422027169350885,-1.4456920717204627,-1.4540546206050793,-1.7937966497263949,-1.1903347951360794,0.7727652691922112,2.1029326106685047,1.7138736400026005
-0.4963458117085734,1.200045518830829,0.3014830993454746,-0.9974070699584124,0.7618881581413803,-1.7409050987907457,1.8206572689668215,-0.22375364061331662
0.4787290299627608,-0.609072786167608,2.614415956627593,0.2498438109765638,0.45668439302165775,-1.184983612625717,0.004217314279921004,-0.7199030086147068
-0.4407700287428204,0.162760361511574,0.9898309390737221,-0.34231117189406396,0.38292941651588425,2.2312052147328205,-0.0846886698996493,-2.5205259441031203
-1.2025218990183038,1.8348073120314767,0.28103251680033803,-1.1816569179934215,0.5800197556906255,-0.021539723474264295,1.944549834102441,-1.5120100729572137
-1.7612293962348826,-0.95830699099539,0.26058670916630816,-1.1671223543113391,0.9844572473442965,0.6581567873269086,0.3333544785692199,1.343690551961164
-2.3429404345111196,0.9282300692973509,0.15545691604722262,-0.9848135673692189,-0.10916919975160833,0.026849529546888264,1.6501125995995443,-0.15670710571135213
0.5225730603583295,0.8015700965505937,1.2457802113724505,0.8116226959270687,-1.6544436178017798,-1.770026775406273,-0.8516392726292723,0.11416413794459251
0.460551703691788,1.2578491091451072,1.0111281935808045,0.7569885823599067,-0.6872350565296603,-1.3254913456854074,0.9710352649806583,-0.9897596853035143
1.547253174613204,0.35322385539426776,0.1728665705996099,0.035805761485670065,-0.14080636496349336,0.13282075510203206,0.5197677391877777,-0.6518623507870163
-0.5865012294742887,-1.0149703270015704,-1.2349079046346514,-1.2947241889170393,-1.3157353190114502,-1.075943479345747,-0.7475185051106743,2.566944955391414
0.792263339231529,1.532814487575284,0.961868765392763,-2.3090266221604394,-0.18025783456299826,0.5752300327002378,-1.7752632091685696,1.1565630314743869
-0.27583650535774273,-0.7044989950783319,0.15163190817847957,-0.88697916614303,0.5323510461601028,-0.3197630264744137,2.13607974442428,-0.8840485751563768
1.6514933356223993,-2.158953442232418,-0.11619594302266115,0.9338414987342135,-0.8897367478837515,-1.180722174251817,1.801882359196554,2.07449427197734
1.4231607069983563,-1.1076022062957747,0.7042510823918292,-1.124836143493449,-1.239375649466667,0.6728234079053117,1.2679093115250173,-0.8651783497850383
-0.903661987183844,-1.3115620166782571,-0.036516458001857356,1.7390074906695432,-0.10286380841002377,0.23795789181012547,0.25432282012196217,0.30525035314142557
-0.9034940522702601,-0.11662238778144143,-0.15917218821021334,-1.0600166305049037,-1.2695405510241904,0.5228313817154353,0.2568422412629115,0.043354058012869415
2.425296264207164,1.3104347150626612,-1.4475166660156724,0.31734474260406637,-0.0545224932575447,0.3673511870487605,-0.30965046731997625,-0.7149769723375408
-0.2333810283606298,0.9109031755632869,-0.8285738439414349,-0.054370406140016196,-0.24093044845609068,-1.4132146278093523,-1.2840761249550128,-0.30073789738138507
1.3541612568030001,-2.167280438173526,0.03780868314515076,-0.11099934103533246,1.0223142592530796,1.5826036548025473,2.2720607975763123,-1.4856129797384852
-0.1825811434782574,1.3940930942033078,-1.7778493687366448,-0.23738081639529748,1.5279677375324208,-0.5099594934244077,-0.4117025558233802,1.8695087819300387
-0.20817003504984138,-0.8623071792169023,-0.028019263840754767,1.033148627858312,-0.3545638195838889,-1.4356345161169737,0.5377684603217278,0.8374263988858844
0.5783020008480267,-0.09945093274883335,0.22761727495867867,-0.943308199821483,-0.9096438882239513,0.24506575748079606,-1.3155551820269586,-0.4345434379019375
0.48185219583259126,0.8189393076888059,1.2203005147412909,1.4079026770678418,0.8361561753818155,0.4729488603774454,-0.5366185954766435,1.0198037596465614
0.8649218838227617,2.590298227162174,2.2596284395633752,1.3561184454042212,-1.55203843840599,0.4248961873611811,-1.1328170866481715,0.9930261228122704
