0.16117906738656357,0.34560701097871593,1.2059583392438082,2.7701292311128913,-2.3079820496373222,-1.054878574817281,1.1501140259370606,0.5289854950371121
0.3867835850737544,0.09361770835787787,0.09494578320193885,0.5238839556397972,-0.3689228445076353,-0.46160750306673515,2.108660549596204,0.1935948431954555
0.6074051399042933,-0.9735295702230948,0.027281991966977875,-0.330566418824179,0.9025923918298623,-0.20683508991359797,1.8805572082504662,1.394840226336715
-1.543277369277974,2.427171177275737,0.4164824124675506,2.4399707003016258,0.6257918844992097,1.5523595966386408,0.042831463826678594,-0.2356445816611567
-0.6733678057415394,-0.6920159933587948,1.4982639336638393,1.0015893576048966,0.7645194664099075,2.2286310966519807,-1.5885293329420231,0.12841469139367576
0.9279154403155544,-0.3114996356976308,0.3058500383011483,-0.378110543434681,0.3949001992574438,0.5452711562241583,0.8045266768868826,0.947595379396858
-0.5842080802378271,1.7951606674829,0.5472769251372227,-0.27487101499957206,1.3982804775893474,0.1869610310031042,-2.094593401776873,0.6249791823784241
0.9411998480815329,0.7139647130683735,0.3967129132793329,0.20656687802627904,1.4694271830058991,-0.4469487868079781,0.23174517334249542,0.18557947235988997
0.5698038473366727,-0.7959076599476357,-0.480056593279789,1.1388767651951879,1.3127345050503378,0.08286414932078646,0.4709708961191021,0.342353464860356
0.0433782095375458,-0.19229663539648295,0.9099632313160088,1.5581614208788648,0.3091993835959011,0.5644813980970899,0.6929279746534401,0.4693925447772568
-0.4584746844300042,1.2691098944826247,1.822180031051957,0.9057243938902548,-0.557262118701582,-1.586770604698521,0.2655167287649108,-0.7270661411533267
-0.1313410326126259,0.854063378229646,0.13460780081634482,0.4241969518559095,0.15014491153417525,0.144611689141717,0.7447455206225367,-0.17164377292987218
-0.7599293139297619,1.1018341929485271,-0.4212553396388093,1.4107510887848311,0.6711052433658639,0.7128587945286586,-2.0366652874109983,0.17809924255233042
-1.5217932855458558,0.7211644212725659,-0.5133318073598425,-0.6760959210725055,0.911346979676932,1.0820365204281883,0.516531756906899,1.3033589953583498
-0.3399389136701596,-0.7892622178062515,-0.057812382621976834,-0.16619549005346032,-1.5317606172336584,0.0019757586403302925,-0.29035610828251257,-0.5686330649731445
-1.3961396315227754,1.1519497692761342,-0.471900332843396,-1.2042818450684551,0.7733239128550328,1.3717411543753677,-1.0324465211789406,-1.6952307232035573
0.273184265112114,1.0363524592478763,-0.05956387458261609,-0.23337441387253255,-1.808816185456356,-1.3881854457104965,1.172234560665475,0.8743443334832821
-0.961241344054413,0.21171014530813714,-0.1671754702369011,-0.5780838008732014,0.4895994121768691,-0.34884432745504207,-0.8731734553130694,-0.6719513718757344
-1.5875853526502093,0.11936430411011022,1.8924781258868923,-0.1610499386375172,1.5690789789493502,-0.30602418211264987,-1.0718135472836938,-0.8524550342598044
-1.0249495662798627,-0.36082473426838757,0.06740961731254841,-1.9539009276881287,-0.592236317030021,-1.4463460641304682,-0.5262013430862916,1.3655152564646034
-0.23569280877074153,0.9706309915653447,-0.04914952605545722,-0.03414766701769442,-2.2293838179682806,-0.08657067670124897,-0.14125576413339144,-1.108588106005497
-0.20583603564236053,-0.041167538615103756,-0.35253108769552005,0.137924497292931,0.6762464539000843,-0.2528294026521752,0.28637744579104607,-0.5026440607456018
-0.9767570687194994,-0.044578077517650604,-0.4978999299871282,0.36822636969990047,-0.3111437845740271,0.0155054472801406,0.2991980604516169,0.9996707861854879
1.804501020382976,-0.9832456001579215,-0.5172312332579828,2.393039451226376,0.9979625620359888,0.2919579993618441,0.2817489903332868,-0.5049429551964635
1.2926250989078196,-0.7460141378531162,0.6718035393862917,-0.48902605406554917,0.3364533058476607,-0.07272213016636911,-0.9190918986091745,-0.6012396516395254
0.4482578695496856,-0.39569421632717966,0.7420062118888543,-0.8595412468289858,-0.07740529652397635,1.5736534002016926,-0.7217600153790157,0.4145099878496042
-1.2057204514078472,1.6590838562947685,0.6104631879775558,0.45269328382375823,0.18738778876348786,-0.2144446918563952,0.3751804703236847,0.294562712221717
1.1684987544166505,-0.4699915426665113,2.1956525456189877,-0.5745376721373114,0.896238197006368,-1.399318048610909,-0.5298771362024732,1.7888673863430629
-0.38075516158988226,0.5013160382043144,-0.5851383744385423,-0.97768613846728,-0.23718784640156146,1.3530472747879758,1.0683813436301255,-1.3714921095630606
-1.1288865001949344,0.20141437271467066,0.40960177706635903,-0.9151363754829215,0.7118467930235343,0.036786633428259635,0.5102212203247964,-0.7517065407184269
1.1071896605617535,-0.6461337735061705,0.6510828781742031,0.9317178938939873,0.8767011758352412,-0.8606500731170901,0.023783103700359756,1.2098511115867914
0.6692461061305458,-0.2997454187863662,-0.7114221199947299,-0.385432469843506,-0.08413393746932918,0.8694002557879422,0.2562339969520574,-0.0349367958485763
-0.9428806210975822,-0.8366635422459392,-0.9700355440832027,-0.03109211082251615,-0.4187399028242952,0.6210657199693741,-0.7981078023043207,0.5285978569607305
-0.34869854128781047,0.8838180402650694,0.10704459080411485,0.2649866690169646,1.002344150714473,0.8438333207725086,0.9239693267159219,-2.5700660112092555
-0.3812012951199683,0.20055479241936458,-1.4538045911981703,-1.6627005830082484,-1.2492504785194165,-1.6061686505362127,1.0055011891551495,1.7477129685468697
1.3270100858907337,0.45511798824010713,-1.086486360856645,1.6270842930246725,1.1255564790003938,0.1362367332420626,-1.0227517424853183,-1.7344892071562628
-0.8197054527390812,0.23251659779917583,-0.2180232257811442,-0.15564559966375163,-0.3999574897575796,1.0498801868024505,-0.707983914293651,-1.123110012201964
-0.9749852555420843,-0.8106054278464678,0.497745253155318,0.6196908840985612,1.2661210907538905,-1.5168013532518552,0.9948919186360236,1.4783839417911435
0.1665829969905608,-0.8504046295526172,1.4518062319622835,0.8667697741118308,-1.0663541627282238,-0.2469175609611004,-1.2773105629013528,-0.3008229265820318
-1.1280835363810071,-0.5017526767174117,-0.7946032908776138,-0.5622170572791622,0.6268895444170599,-0.7673219504062542,1.231228680937482,-1.0090510677437479
-0.0015863227695525838,-0.22158582965270715,-2.6770628990651812,0.9245850871481986,0.1929143796927485,1.0572755082824747,0.1807358346830743,-1.7821067779735167
1.686571607600327,0.03144469998720602,-1.4581656822887519,-0.026355011181476255,0.17061614992782181,-0.5660241756026907,-1.5034862664341548,-0.071645279604855
0.4332582090670319,-0.9529781314580787,0.3986731487683909,-0.3908192628755615,-0.2885628149952087,2.3789850282866833,0.4250196312765627,0.02268396917376394
1.222194866163512,0.42960493005042183,-0.06538742432126608,-1.6339057731878996,0.6272258948050934,-0.7067370830807986,-1.4444250150717288,-0.5868550605922218
2.679225833059785,-1.248374848111883,0.8216821156939905,2.592278762754701,-1.7550280980178221,0.5058589551453696,-0.5263835977773976,0.5836587315291706
-1.0884698788861582,0.2221437982056545,-0.5659249314292418,-0.008542601789495025,-0.2611549451848225,-0.3573414918032184,0.4001900423283766,0.11911893376307045
1.1991783247562608,0.24611759336156655,-0.8413705053330821,0.11696007833798534,-1.2004141618892339,-1.1350692456599902,0.4445951111507374,0.3409994219556725
-0.7345966740213755,1.1815507826698812,0.15836129982191793,-0.8392148792594583,-1.0786214472243436,0.33123712846632797,-0.5617772796168385,-0.18668826937320585
0.4800908691036117,-0.33516592194337247,-0.5240664408203659,-0.05611815300821157,1.1215572526268633,0.07821971402363835,1.428754563412734,-0.8110237478670931
-0.2870531237029954,0.5201534832859684,1.4114473632453397,-1.3356791067704374,-0.5712090602689058,1.3738496666862339,1.6264849731136217,-0.5943423796000509
0.18470685314034882,-0.5022540725192126,0.8912137321619618,0.1412868525111738,0.4437588926670169,0.534579940756667,0.21609858753524708,2.1379205803650523
-0.8618923026318202,-0.5277047898861033,-0.9966323960152695,0.2424536818800974,0.1255732337121293,0.9282846554562316,0.07646555273264369,0.5924985108738438
0.24542942426754394,-0.06365953196190904,0.4196971136779548,-0.19771823521330117,-0.6328350204792805,-0.9639478391438582,0.10845388037131039,-0.9181522841292614
-2.258771226436488,-0.6036209949263858,-1.395486379932647,-0.3301048627546495,-2.484311228719836,0.10789719622428678,1.543113498423304,-1.222941467847106
3.3871716984183893,-0.20798641404998616,-0.32179050499722117,-0.602547351325574,1.4875817237619333,-1.3474306460222145,-1.8256069828989971,-0.016722296166681565
-0.7609977906939152,-0.6462732954340237,1.16076402340297,0.7184175386478006,-1.1056187266378426,0.6444512973528881,-0.9247730797981316,-0.9323244369882562
0.6536875380947864,-2.4411219363158407,-0.024603021761670407,0.03804617162303444,-0.35143482438932655,-0.17721878812537814,-0.06254526191261214,1.0401954532292037
0.35976456539282203,0.9168691760014244,0.7040969695242668,-0.3064133355481251,-0.9257549147267142,-0.49294674097391333,0.7593729406782649,0.006329502795659868
0.2980147156638062,-0.027403690973674042,-0.3701862112932636,-1.32774563438829,0.8865409753532925,-0.35702878469016175,-0.005377415820942606,-0.9123716355072917
1.0003940760350645,-0.10381274256735973,1.7068490242818686,1.817785367984777,1.4070279720344498,-1.0461536987969724,-0.44225792967157124,-0.16623434467559187
-0.06091162157665073,0.40441090965087434,1.0830678845022261,-0.8364663492633369,-1.1589837569697377,0.933615292038972,-1.1575501316162344,0.6606830285675236
1.1065079191411127,-0.2402944108771399,-0.9986043924288958,-1.2317145473896371,-1.1495069939526927,0.42239017950704755,1.4598003137728222,-1.4567443293445355
0.7804088070178835,0.3269054631781909,-0.15808876800460672,1.273062953218494,0.6923666441830743,-0.26870926616662705,-0.8309395592052455,1.1195636973596121
-0.5882962248122734,0.7219942583205814,-0.9998914658206389,1.1653752531630344,-0.44234803979162085,0.250840260084402,-0.20215967898298776,0.9594971160887187
1.0010746756497833,-0.16375346904217786,1.7865764724120317,-1.3560966102636867,0.5940620110215229,0.6727495148149634,-1.308646515956512,-1.2682207644650227
1.792543595027804,-0.38054531280261006,-0.4412348306778634,-0.4780397305692116,-1.2348021174527029,1.018901954001488,-0.6763049645837788,1.1125487313412281
-1.7725904880650882,2.5041510421175754,1.6896889791279064,0.7891689185862013,-0.07701504589162256,-2.6566127519365477,0.4141043000349628,-1.3422954135869398
0.40619111624934423,-0.8264193673658731,-0.15173337168115225,0.9287767172386298,-1.1573387716223815,1.6117721345292255,-1.0333897132447831,-0.38613636474434554
-0.2734857349554879,-0.7219468709630749,0.5176707643795795,-1.3103863610883262,0.41013103001971013,-0.44110585281542036,0.2792075959412993,1.0306812314854412
-0.07261242633295792,-0.5115548972955125,-0.07954234815457972,0.26647419313168086,-0.21864830441032343,1.5685185317231423,-1.3541792270166058,1.8023212497330965
0.40737598849642676,2.087581878332809,0.5095771839081398,0.8567832611000505,-0.5046711789133587,0.7504762750558011,-0.9785668654040169,0.8376672703907594
1.7091186937895757,-1.5423405762731945,-0.5950727478729643,-1.8618363431679505,-0.2727629516821414,-0.5182037380082206,0.28655389278693677,-0.876561931887725
-1.0168713780430714,-0.6657741984326178,1.494749601862823,-0.18311085971810392,-0.7888747168934945,0.2795277954406993,1.3107140082168438,-1.7112005080054502
1.8962489332594663,-0.3446004184052707,-1.0740507960947463,0.1884913687628492,0.4308488846388336,0.9920917569960546,1.935768376559127,-0.30852818335299204
0.6048725228694102,0.050516986955957396,0.7531917007084317,0.6012683796277352,1.0382630973434959,1.045809425697448,-0.3167682506617138,-0.13985350940708308
-0.24806187574115834,1.450117861875927,-1.1861699923479394,1.0292671107485174,0.4444616333838741,1.016151402925578,-0.08268779176468082,0.35229308857305797
0.32997659981165817,0.943714680373785,0.5189255123440187,-2.387365754115459,-0.24794407789080053,0.25939073406852786,-0.1404742154935033,1.4322094841342414
-0.3294825577299509,0.6882671835195021,-0.3311769042654128,-0.5540399235881679,1.9988520181172555,-1.3740302466295122,-0.5677466931705687,-0.08404050149194119
1.4481765825258388,-0.06196050351828017,-1.0560372724304066,-0.22652412904054403,-0.3036537728992581,0.6079518875426471,0.321994398267806,-0.016982113615277773
0.9859107732119554,-0.8404351749447815,1.389360768120581,-0.34631134344365594,-1.3434073147722332,-1.0011901924761162,0.614593843991274,0.9642542070047674
0.660780131701681,0.9924072176514508,-0.08345347065804117,-1.3033987877146245,-0.7178818583016916,0.3227239952327795,-0.33059157750983653,-2.4877498697338085
-0.09938695532820639,-0.5592187646190669,0.6548930986556545,0.27662827849979527,-0.9906756141829022,0.12979388644881576,-1.8590065467385162,-0.6896008087376468
-0.21886702846769418,-2.4151641410994995,-0.3903270098252412,2.361454732100405,0.8543653545779883,0.9522579962794765,-0.7318712422382203,0.9726556373262932
0.6551987051202702,-0.3986145526046091,-1.0040677272632272,-0.09743904215952665,-0.7972365849242924,0.2950692915972301,0.758432928548194,2.3651300829089736
2.2748643142442413,-0.5031398502399902,-0.6239501022956646,0.22539645994745075,1.334173356418107,0.08089732769028969,1.3948959028570114,0.6044100185048112
-0.18207410976062088,-1.5172170146401969,-0.5283571008409307,0.9504951587546318,1.4521727580956703,0.3455832386900943,-0.16988644288579402,0.7181662772363508
-1.1812026810706575,-0.05247589839310428,-0.3636024623957494,-0.03467824713292666,0.319091574722392,-0.2586532364888899,-0.3626331027669684,-0.4248673045538686
-0.7409790693524434,2.4896933398698087,-0.4064248034876567,0.5595519142864951,2.4207065022823957,-0.19935536715898142,1.3579273934053464,0.21592243906143832
-0.3630945372028909,-2.190847191187433,1.0036281352855059,1.700034921827232,0.4302566727314907,-2.2441913814647476,0.1129073125412164,-1.175372911487835
-0.40314081160394444,-0.23301946389324502,0.6523649222119089,-0.3744020052400997,-0.7664737161233304,0.0811987658482255,1.0547886541098381,1.2903168000998964
0.32838042974248144,0.4465407147413991,0.21913462962453306,0.1171992654178751,-0.2235127719173794,-1.8142391598222252,0.5554003390670506,-0.18670859486059896
0.028258121886413905,-0.02303772728996444,0.9742223488958317,-0.11011209761379406,1.0869866469388938,0.06063939293564952,1.1222467367594913,-1.2851627665873722
-0.38086783538324,1.0904672913029032,-1.3954749979839394,-0.23592872550289445,-1.0093448105024365,-0.3524140175648038,-0.5180701570486355,0.8557071548304915
0.6672150341574649,-0.7330138498413433,2.9284981555126444,-1.5645640614329168,-0.7503140343401189,0.21729982128093636,0.23628226117630807,-0.10888941373721717
-0.47759425983444254,1.7486136788450315,0.22226454261121228,-0.9038027615096488,-0.545893660781969,1.8228998107128593,0.09399504919899704,0.4398343707217632
-0.787385011126366,1.207370085559422,0.5780744416301086,-0.032016002227776154,-0.6250569062303734,-1.177421045554586,0.8163254670475757,-0.6055479168360828
-0.8031733253537098,1.5638469471508527,0.5280790999212873,0.1885544405901991,0.532574538881028,-2.352818355915738,1.0630957833390393,-0.7890360869238373
1.35499539536759,-0.14836165879919738,0.7277768688334371,-1.069979129535638,-0.1156723026647704,0.8997514162247477,-0.43103726762731204,0.991116008699006
1.94108505373596,-0.03531586918548267,-0.5304511173913704,-0.38434688328817157,0.833236279464459,-1.9061760637554614,0.1487964437718388,-2.6196057604004586
0.7350865218204088,0.23991867020020002,-0.9083477023574482,0.2547140492380813,-0.2112585951914724,-0.43811656078478206,-0.16007725987100124,-1.6471754078713055
0.5125254557937742,0.28771786910548347,-1.5194708155395225,0.19033647920488642,-0.5147225847951841,-0.4093808345789822,-0.04522423235993044,1.0718043733923555
1.2807909604127736,2.372024256448449,-1.124147122457754,0.940652131754721,0.018419741296092106,0.3420930044404787,0.2823680178271857,-0.38480658523102557
0.38604288472632686,0.7646824329082247,1.296901762241952,1.6888361911889094,-0.4110640482510832,-0.7369856431834806,0.8707942914280199,-0.07467285656268652
0.2724774250376111,2.7447046174862666,-0.7062049265722422,2.1539511888853444,0.5689187627676597,0.5741576529097833,0.9503080918270661,0.029074194901000903
-1.2538784299974126,0.1092474490215724,0.42769763628074675,-0.8638886461499545,-3.5469171716041727,-0.22312774299461502,-0.7927144730712408,-0.4900778262747943
-0.004450223115942697,-0.4200106322746896,-0.41441223455863474,0.2919845653020239,-0.562022827909391,0.16640456188772063,-0.8412229335569876,-0.018805654257446278
-1.2923522750958398,-0.14556168926586383,-0.1470812299373649,0.5429882581051346,-1.3125934741788283,-1.050334462040152,-0.16851012076549823,-1.2717893045182491
0.33743909667372063,0.3309411543855658,0.12079840057438697,0.2346904306340093,-0.42668006556628524,0.4651276967637709,-1.138173157869735,0.27585132680585694
-0.6494954675463266,0.3127650778885542,0.6218746571696996,1.0817391276730177,0.6994380128989316,1.4736896568323588,0.5719996713223644,-0.8859646416795888
1.6372151016297791,0.2799691252847261,0.9480319927749381,0.19645552826390542,-0.6202580746757866,-1.268489896088178,1.3908656565315758,-0.08630268792411111
0.2018312266157469,-1.8846137630375999,-0.111982843135055,-0.8940687045879234,0.1451316001980825,0.8656885272092536,0.7414666916306278,-0.33683104764950117
1.145464904451804,0.022743316190145975,-0.5776255592652121,0.6401505608617231,0.10715826953897235,0.40590143682023394,-2.0678513085746744,-0.5618729354359071
-1.6367071379479086,-1.46162876518832,1.518819504874389,-1.6994850248928672,-0.1780677599992263,-1.308748393365344,-1.1487714447839792,0.26654582885831163
0.6889477134900821,0.7351959275326858,-1.8397570854771768,-0.7237650087406536,-0.5690127832558498,2.3058458738865943,-0.543628387847914,-0.7567463060199616
0.8866473779960489,-1.6707794129561828,0.821167516771387,1.4698874966838882,-0.7751751550171356,-2.0642128037564023,-0.7817312582857158,-1.0203391297067457
0.5672265428128409,0.32029205458595467,1.0134962479397536,1.3369666376457905,-0.4149598048088005,-0.5500520349530299,0.5130334139372914,-2.0169639354450846
0.5004672324771055,-1.1862298752714668,-0.33802705590145815,-0.5572748858330421,0.39831465417158635,0.38765443444460895,2.4159775534714463,-0.414746100348977
-1.2066543676533363,-1.4453970082567222,0.22031974981493344,0.5992039687291424,0.5551414999991141,0.6090172574573625,0.031647027711680716,1.2938530745158463
0.07889566266325282,0.745616998533627,-0.2261854749408891,0.6100398760900001,-0.6322016646688691,-2.245933254734039,-1.779230137549707,0.2732267716009509
2.359905045064864,0.38771921264108283,-0.42790824659511567,1.0843223192755318,0.5278243336080126,-1.3586168681096593,0.2726549958363356,-0.897405284765943
0.21347456933950862,0.01380133464334371,-1.0694089416252683,0.21744901926686064,-0.024819694241779523,-0.857144168445044,1.3051586750021373,-0.3612857797287396
0.852028084166967,0.19751904475891122,-0.26356744046840286,0.04265353914629264,-0.5860385079189175,0.1895733565380822,-1.658368536795042,-0.5979518750222423
0.8226768886451583,1.3011337895738535,1.8982728771051343,-1.3180224241056417,-0.05334044136504614,0.7871528882835642,0.5403953349150722,-0.1542776939181811
0.45764203142828896,-0.11173216939898412,-0.48455054771124895,-0.5263551687319908,1.3438877967695024,-1.113384595024939,-0.4747727836575748,0.54433400306507
-0.5937635379286634,-0.942789211103244,1.4264757933260002,1.066180495458416,0.746168990226667,1.532570574074758,0.8074870950631265,1.2905434348135119
-0.4502658903841665,-0.19262021841648602,-2.7516243251506247,1.4511064281791533,0.48529573953826455,-1.1914752465507767,0.9873784771099304,2.7087674190364126
-1.5602377163144587,0.755694336831688,0.4046042426314064,0.5494563642775777,-0.9457879137060923,-0.5246048340262373,0.629935469694618,-1.276651296109743
0.43612003013465267,-1.195818436792549,-0.7146509983299313,-0.1950351516291603,-0.34323040750378686,0.45826050263209595,0.9985886315398904,0.8610039216423233
-0.2275325643314739,0.21657259137534124,0.12518503463198305,0.38824208267767246,-2.1112266502671138,-1.1993382841181297,0.5813267656584128,0.23877427092517386
-0.3257762040171899,-0.6509141985509327,-0.6142793318874311,-1.4998274993696243,0.8577126701631648,-0.27318968676839006,0.7687173245670922,0.22996462423061603
-0.4614246862690406,1.7992142752675542,-0.37334054667105687,0.3812375231743387,0.24014858577299014,2.023262188508932,0.8088189071946206,-1.8962244421931007
-1.4082540339611704,0.14091561389679777,0.46104266695204366,0.6913791332140664,-0.3460833587343311,-1.3297308777662291,-1.346427988115054,0.34645709053329715
0.5140316481734772,0.8809315162363911,-0.23376183310638576,0.459346363090983,0.013191895037235692,0.4759800172694455,-0.5771719325500015,-0.28317249062297295
0.3023031052740335,-0.21676574397687237,0.3587430042612127,-0.27896219193133087,0.11869330912671656,0.3817707705018783,1.5371032450417645,1.5257982404079646
-0.6800764889365054,1.0739564666769563,0.8362841588553259,-0.3949636426810302,0.18054955684737625,-0.3466827108381679,-0.24925910472556068,0.5746258362129434
-0.5956829039252987,0.7778040513709833,-1.3082512029930675,1.0012616152279332,0.9044201861181154,-0.5008004729648254,-1.0318292155852404,0.9066545901152457
0.06824249207608651,-0.5965815794891883,0.6718488207166692,1.525007009202839,0.5084978329228402,0.8629971598240933,-1.04404806381974,0.48968457156924255
-0.9376050243956223,0.5014307970661988,0.8108928572495301,2.1801229490771967,2.1709343419700056,1.1920053463351303,1.5864539150875177,-1.1575360550492162
1.4370837740907387,-0.10186429811785784,0.12752776927210907,-0.7789676252676759,-0.15814152753830787,1.4394790863160145,0.22919542954193176,-0.5105060301903847
0.9220246963345139,0.34570121463273296,0.47838375696026025,1.3812464508835607,1.149218798555127,0.4402474535897727,-0.23732100561005365,-0.7250370810621559
1.425456937607159,0.9205132653935458,1.364461726105235,0.9321362866563098,1.4723850002576473,1.1294239954982965,0.08110599365054824,-0.9460655716805454
0.05157883591588056,0.035576232016511895,-0.1285258842267099,-0.6198288923951187,0.8431137888625386,-0.5796420301118984,0.1915126959397645,-0.8649057777250578
-1.4039669294848869,-0.4452015253378446,-1.3728933725529544,0.46100055954149166,-1.1575329603195126,-0.4501447950875228,-0.43984797741860754,0.41542458384666875
-0.11882993803060599,-0.9675494165034653,0.8690511600262184,-1.7845218734894623,0.27203131547893616,0.005686726306629348,-0.5069585726839327,-0.1604789440303783
0.021524372017469734,-0.3883153135001067,0.8465054669408789,0.12394378850065704,-0.35517647044198625,0.6598609551583631,0.12382205825757384,-0.9851372788642844
-1.032632681255416,-1.6485036733522065,-0.126479664044794,-0.17522854163622703,-1.444699726425488,-0.5574646098446854,-1.0651961446387577,1.8898204265497502
-0.41165602988213196,-0.503663173671903,-0.5558563457041528,-0.021531974119866137,0.8885363080929003,0.2353208118118195,0.5960730018837579,-1.127215894259835
0.0007815117000277913,1.5450704974873026,-0.3245392875592364,2.2151458872641214,0.932684589488174,-0.015753701719367724,-0.6367326332966099,0.006726539437266025
-0.6181636232029053,0.2797101174129369,1.4458464501433297,0.6676141554520677,-0.9051759825724699,-1.2551149898152258,-0.7726047258873043,-1.160099293677779
-0.10013030875596748,2.1787175949752173,-0.7869822592434306,-2.3044131538303723,-1.5727284848872352,-1.412952121669218,0.023760658179293206,-0.40343405099521473
-0.7495454147448974,-0.24781167820346317,0.6143558199695119,2.1305959766116396,1.4984416121434037,-0.42328295648582204,0.5282880558810844,-0.8106515235386479
-1.5353782812979229,0.012962076079929826,-1.6206910389831655,-0.5630379987824881,0.7781636945276857,-0.3584385559924754,-0.404749119285221,-0.03074270356891809
1.932886671026999,1.6361074493643708,2.3742413622088394,-0.1834560543724935,0.16085371751554145,-0.8325935627576694,-1.042990815827052,0.573274189850748
-1.0655183577591216,0.4197736406691598,-1.2412482913442784,-0.9390566630420093,-0.10166309714063292,1.1754107652296,1.724111426921725,-0.737527187519188
-1.6120644884246147,0.3327349075974747,-0.6673902400321359,0.8943595126308562,-0.24893845889582378,-2.6579093346858844,-1.9217106737616356,0.33912599139847754
0.5473179016681837,-0.33523581675166125,-0.5295723869183394,0.11937504905875969,-1.6719328671538374,0.49003656574366267,0.4076852957503737,-1.541727539521496
-0.25488474981924986,1.6028869789522342,-1.8194009372520157,0.5193414549374071,1.43245687645995,-1.0987749976828198,-2.1443852628025923,-0.11018108107028374
-1.3920928987783014,-0.4296235999041136,-0.24497205161948593,-0.5438283872750103,-1.1802969751100272,-0.7745607808198275,0.20288381151068224,1.5126119916974712
-0.23166691252471966,0.4479535866416843,0.11246654809210935,-2.0680096266806474,0.24071846064533337,-0.32195843797454227,1.6063297826447385,-0.02478714304768003
-1.048718304806948,-0.3103556116060043,0.822666780189071,0.23984961332441992,-1.2642690239497296,0.345533305586148,-1.0042519172671411,0.4646492138748747
-0.39089296066450424,0.14478111066955365,1.9720097399281464,-0.14896746833508373,0.5396854428203769,-1.321903280080562,-0.4179979512372619,0.981921944795162
0.6864142945428094,0.038431899098643606,0.75432870532792,1.5147543049704633,-0.028505483940103823,0.6274693804615187,1.9194474646211905,-0.7223842734544073
-0.6789287071144687,-0.3806153346615409,-0.6025238639222787,0.7579935133507176,-0.7199450867999896,1.4736634850828096,-0.11016199132002782,0.25972592368929676
-0.36643175046505755,0.04901819467145389,-1.008726019941578,-0.21432137878291038,0.3685332964049666,2.4110546282274354,0.7789460821599747,-1.1360409175933057
-1.284023411549594,-2.453594035008492,-2.1854849434754464,1.139167463460232,-0.3413902447298198,2.4041188312719424,-0.8382127577988444,-0.40229815174275424
0.5492180073634249,-1.8651300343620525,-1.3961350111422526,-1.6182570622117658,-0.02160625047955142,2.534415071057214,1.5473533741709993,0.4135779765073029
-0.9179675665774345,-0.8293490230918343,0.6163359856321385,-1.094882032197783,-0.3969212760832203,-0.9954397772124912,-0.3314355539348467,0.3683855713434393
0.4530069624983388,1.631109934486392,-0.6200570175564261,-0.4840308374809775,-0.7417574276854456,1.5948780841512358,1.2694831334076333,-2.275781874646838
1.6139539070575122,-0.012864352289028779,-1.4478827392152203,-0.9751815874592237,0.383366438682145,-0.46792004246387275,0.3323384899846585,-0.5279050250742335
0.8773581294404489,-0.9739824100624425,1.2239232078855131,1.2218808058757398,-0.9724256981896918,-0.2653306270251901,1.618575128269221,0.8055116753721339
0.16241949370251216,-0.36059832402159375,1.0250011925680031,0.943968099848992,1.104451610803484,-0.06681703989648721,-1.4033647051047375,0.7110533186935027
-2.1498984827159444,0.47788891630436064,0.15270711647112517,-0.5081680556511382,0.9401322785324207,0.3151246558613639,-0.15958539348906453,0.05120408864463046
-0.8341398915802567,-1.0515084215699808,0.9965544661099824,1.0108289375361006,0.8863327925032358,-2.1446048078962705,0.6533582338650769,0.5266563633721282
0.33903602544662426,0.5758364000932004,-2.3430239927007617,-0.6395621778727413,-0.7726040623733891,0.8924939357484714,-1.4536721412601115,1.9189644907113257
0.8149111127094655,-0.35104854565644655,0.41876892297800183,0.15784643217731267,0.6740157910899683,-2.0099377791409268,0.6026649119121097,-1.555294087832477
1.2315243732233583,0.09601759667967333,0.28823222274406995,0.3587725760954912,0.6368517469275288,-1.0042570187369837,0.009058162719674759,-0.26757613585666196
1.2723309097403663,-2.9418821135019613,0.05062309041940685,-0.09727429628040865,0.28458244037527103,0.12820410145610858,0.37401439257158187,0.6523510930270932
0.896489796541253,1.2251942218975314,-0.46057539922761376,0.11945778863126155,-1.3764011656559088,-0.8347677141825458,0.6756776611970501,0.685406219249066
-0.8561455463615024,0.3960744510222682,2.2364082003212578,-0.44429107970027065,0.6486929300454404,-0.9073094462848988,-0.529710281522445,-0.1975575317043099
-0.8825775630951478,-0.4940044604422987,1.35613101713637,-0.21318903364364658,1.3383071490613614,-1.09688287637268,-1.5647308327256124,-0.039524765997772444
-0.7391250997646713,-0.6583978634740597,0.10988297852305465,0.19185205333833588,1.1583790850724336,-0.3756257884557308,-0.5967530416557073,-1.5412388155198786
0.010775739086124956,-0.04149737770888088,-0.5670994793689345,-0.8947453597937591,0.4894533222633955,1.0275197977029868,-0.7894525974954993,-0.6819678511260371
-0.5675622838356923,-0.16959080161055892,1.8520476891095983,-0.8287695264327313,1.1483885955742767,-1.7353148098918068,-1.2077556123891477,1.1755083616330193
0.18508577664681844,-0.9386510634877582,-0.5286556515872971,-0.44768722759319507,-0.7960504400367536,-0.3709421010853667,1.7375580458054096,2.998715230129896
-0.659201077991348,2.3798889412454898,-0.8060332145807988,-0.20080945633212285,1.3969260091972118,1.4525195870797125,-0.5391091753226409,0.6218993352548337
0.857514627973882,-0.543986370893647,1.1232192161794612,0.42747275938540663,-0.22386266297432544,-0.21763481491424613,0.17922929702237017,-0.8503634968618422
-0.002315047725647163,0.4659289672655981,-0.5450829474480172,-1.5405862998424504,-1.5057990393489076,-0.5799075154367335,0.20122833705749524,-0.04666096107375165
1.1894345908665225,-0.15536270017641524,0.7527308575468811,0.18345294433465212,-1.0015291529594488,0.17774108519414986,0.38016747132057127,-0.005733843149903275
2.3745235323572254,-0.11024261180237148,-1.5092345679377728,0.3697748915809496,0.8830117961422418,-0.34864907681293533,-0.10192793756858444,-0.7916048481236589
-0.9453790419912349,-0.42821094596695447,-0.3760421183050187,1.3602492525593306,-1.2280533416110855,-1.1629812641736534,-0.16159896295272017,-0.9133606483686009
-0.06322879760222411,-0.317279640641445,1.6059411682806242,-2.3410312420148713,1.2411485674034755,-1.6231283475638751,0.62212916692911,-0.9975062728654058
-0.49506500969449424,-0.07593151262205468,-0.9471765991268353,-2.1101249212430235,0.7864854713742561,-0.9702468026949871,-0.8790923359843954,0.1472559400519125
-0.9500944941712418,0.089692991422719,0.02762259894916658,1.0956020283813526,-0.56637346827667,0.604854872231901,-0.9037687399568194,1.4084380987828231
1.6057992827629033,0.34297899165078927,0.626535976419577,-0.6922870114160823,0.536544033523983,-2.181176321644234,-0.059673833983145984,-0.7714658420713592
1.5962455551381354,0.7490645589773471,-0.632693237810621,-0.564070085401755,-0.3002392517107099,-1.1368600087947127,-0.6855142396783634,-2.3927135629386926
-2.668906140040301,-0.9512817420725106,-0.27114611909839326,1.2633791640390286,-1.3984571116628268,-0.6843708060449918,0.7995275264013136,-0.38995316196515994
-1.9902126185434246,-0.11709849126599702,-0.7687258455849431,0.6373413320302155,-0.03540015661770545,0.12841542432279043,-0.8938138705706391,0.784759959008335
-0.3459740186468959,-0.637230402966294,-0.5995871334677961,1.1326271671819346,-0.7049536357129861,0.44656704645395123,-1.7742598242910619,-0.6013764369626542
1.0954680119802949,1.2624175576712375,-1.2509175186170285,1.1651073648612682,-1.4121414314202905,-0.05885904103070843,-1.3704160905384766,-1.7340726168319396
1.175618784329943,-1.1273017681769462,1.179020234807691,-1.4316325570586974,-1.5514759023043463,0.13072787388894777,0.28022835929838535,0.6998094665292046
1.486849786254349,0.17470562695575687,0.0399856928978047,-0.6827552652428185,0.01432128339638507,1.277207579258098,-1.2734811747119572,1.5007712969953741
2.0387824651140756,-0.3771436229670158,0.6253548127637462,0.2865256272045256,-0.8893352151577266,-0.8143123941123489,-1.7930260779817264,-1.6883148381848472
-1.1842653267076564,-0.27820073045869437,0.615064059843056,0.7362281213435717,0.16735548421641824,0.4280378067190972,0.7793946681605348,0.5822173959471828
-0.3285662870296467,0.7120749795666212,-0.1271693810970911,0.12564516959550995,-2.0139526717369103,-2.160407673749381,0.7429803434149662,0.631355428877352
0.5869418041032688,-0.47340653492280216,-1.2512750782437638,-0.1110267406604049,0.22579228197979778,0.5289849028381883,0.19224502457791867,-0.6879914348999688
0.8766206540608631,-1.993395350581436,-0.3248278342511206,-1.545316509562379,1.6696319219011972,-0.5418893315024456,0.5535857553828439,0.7345051227871643
-0.41795447066871694,-1.0336062706489306,0.22798470301146845,0.712565824933338,0.4535361057717258,-0.007583605293321498,-0.2850404955850949,1.8483539343365278
2.327141749024654,1.828368254382355,0.3479861060142363,-0.3831057470652453,0.045495578203483295,-0.3201262054294696,0.6613245342777629,-2.04642492636536
-0.5871933346127597,1.1383869191122362,-0.789506426591223,-0.22002016075789863,2.0027063674033188,1.3592056907575982,0.26465622863734767,0.8729193454674211
0.17188487636766211,0.25957069548119005,-1.5587926731379491,-1.7221640946771508,-0.5294968303062493,-0.9594974035253357,0.13508714928338708,0.4606355357110152
1.577480382164429,0.36011230784963644,-1.7266231969220454,0.8666282066467378,-0.9763559858362267,-0.8552824648277976,1.120765790641785,-2.1971858988232604
-0.280276657125404,0.3973708089877567,0.16377991247824472,-1.9650846046626698,0.11078244544363854,0.5938505800597043,1.0529791847561674,0.8904158646688644
-0.34405262980201673,-1.1334799772144224,-2.1418293812056,-0.03790199609136773,-0.5803508918307554,1.1483258675249977,-1.8481370365549965,-0.9300224971553414
1.0309379871991855,1.7259085696737715,-1.3192442367246093,-1.8095343406186533,1.7118660886475556,1.0974902854629511,-1.1365310984433539,1.099675992424519
0.11759492478714308,-0.23751695492505623,1.0029764067841254,-0.7926693803902116,-0.1141540810702622,-0.3004598797485592,0.004630487111126932,0.7345207703297209
-1.5412174753915853,-1.3673284161295822,-0.33882110032536,1.2352271080161097,-1.7391095203859601,0.512434485621712,1.0145010921013071,0.5150163077360047
-0.35467721507175726,-1.2043410206613672,-0.4108376053276481,-0.06476942064945344,0.13342133684231755,-0.6830830314335025,0.8088535467339205,-2.34707680761837
-0.25967153688305444,0.30834325857261496,1.043170011630149,-2.240857471306173,0.6251606508395543,-0.2299619687770628,0.49369196749096206,-0.15932158128760338
-0.021196017290098002,0.03950208959913466,-1.7750474488290922,0.282587368896239,-0.9121912890924894,-0.2938285900661318,-1.1203846892989504,-0.3071140449051545
-0.23612850233022237,-0.7409936633053598,0.8474157630150341,-2.010775469409072,-0.03334682764282967,0.764693077853239,-0.5822342667770936,0.6991080382559788
-0.4942535627353237,0.08191125732691994,-0.8301196382532928,-0.14786389508556613,1.3487134469578324,0.8583632558933098,-0.5775705093850233,-0.6161109723856028
-0.22517107631612876,1.4384961842447697,1.4863114562377198,-0.1260060133230157,0.14379956720841083,0.5975482336406772,0.24218228227345653,-1.083007960947859
-0.594374611031341,-0.22346594024982797,0.918541701063621,0.682276123687048,-0.26126368450421705,-0.21218348917111482,-1.5686325520084077,0.1208733437475318
-1.456288203066745,-0.2710107123235228,0.3614664605052543,0.22307492702061443,-0.43949198868508793,-0.17675917265975025,-1.9565563595039814,-1.041604239799759
-0.7842425823693486,-0.4267194148837125,2.503566350040752,0.10977724309268921,0.05484239309914157,1.8356940780642421,0.1488559376556565,-0.15692906479702054
1.680894567098055,0.6934414012469401,0.6804804247707338,0.5037040408078602,-1.8184495479873766,-0.2265109435523516,-0.7674914615194567,-0.5497965157458311
-0.6750005715836089,-0.00638426673599426,1.7101294305603416,-1.1286745050464742,-0.8356240205783217,1.0228441388183314,0.41869536508190586,0.16463028972757596
0.3395144058124335,-1.1167993004170371,-1.0202041367162766,0.19174737187432558,-0.0466350353945795,2.4127572177477323,0.3864551554002673,-0.7723985269111008
-0.6958900003372769,-0.13491188636315313,-0.6914918197889152,1.2554223097592891,-1.3723515087600768,-0.08705350802149506,-1.4423179730431868,-1.207845180865229
0.5247359765267462,1.8085167522795673,-0.9186534262289678,0.5087904963482076,0.32368117670252355,-0.6202994570958277,-1.2521402292146806,1.461294208170459
1.0953430184329043,-0.630402009834345,-1.7887463313912666,0.9510684915863883,-1.1862370101795512,0.09079623819669225,-2.9895158100325743,-0.19609892531362536
1.0293553394402402,1.0139619222513696,0.5466735263039577,-1.734696751257207,0.4858603373798354,1.3484198238888938,-0.18906505703585672,1.1458133073234302
-0.7513427015467757,-1.176699736380216,-0.38827159166121356,0.9418066499002578,0.05860272241663178,1.32893328613192,0.9202635297073267,-0.4165304194362765
0.6397426780557944,0.5388313134878772,-0.25337808832121195,-0.9109188582717643,-0.34733104405142723,1.6602697715563337,0.11419162006075265,0.9875942091894231
0.4979008590015181,-1.9710275396434151,0.4145432461922574,0.9031269354655134,1.8626140237807687,0.03554524001490941,-0.3300784295867144,0.7746370868453497
-1.7498897355912546,-0.4492094658807519,-0.58593757373259,-0.44386141909752114,0.4124605110157467,0.8956198364575896,-0.08179051737436836,-0.1505675369243556
0.3912722515673144,-2.1320154891131784,-0.973881017222997,1.9762910728869267,-0.4131236998770311,-0.14231580362368082,0.7383431306484639,1.0740976236093462
-0.16462290352196998,-1.126999529937788,-0.6622950943402386,0.7500970200119793,-0.03726485984532731,-0.9140838407487943,0.26796217648798526,0.3131355357442126
-0.49165372293545756,2.511865052173906,-1.2201321964992164,0.4302758495218206,0.15840533369733942,-0.7975578857444297,-0.8846662820995799,0.14425237859604256
0.48527789298650037,-0.9885038897231923,2.253329936337407,1.1179016350054918,0.22242991301891052,-0.24966600215903056,-0.8243391672286645,-0.4258221764169507
-0.6987835843768533,0.9014649877047322,0.9650533607910338,-1.950753063685446,-1.7123230954107622,-0.8633970080397207,1.3371191152188666,0.9830929656720769
-1.0980146283646925,-1.7427961656847832,0.37874893772317647,-1.280343998809507,-2.107158558017495,-0.3217096806250793,-0.9138576719143379,-1.5469797323699168
-0.46024439014982427,-0.08442798323234793,-1.6957643768872772,-1.683263204003623,1.8191326998798822,-0.2529354041063338,0.2517439558423227,0.5074322795119591
0.7402869269863175,-1.3411418782251951,-2.122538683350193,0.1694721329836522,-0.3048469817405943,0.6180527631384537,-0.21378276963093565,-0.7469889728081451
1.0101704281925294,-1.4009061909969107,0.288438536966243,0.24285105623236256,-0.07265906099246314,-0.1486055622334214,0.7865865213885775,0.4085713422558758
-0.8175045710389465,0.6092839962966777,-0.9557595344674211,0.9424528947199742,0.8520968592165722,0.13600112281321836,0.6023393564590067,0.3181482284290201
-0.9773263862759556,0.6237428288212828,-0.28010799647996837,0.04200466206584006,1.3034248273762092,2.064285663213634,-1.7791397495112118,1.3246321004813957
0.626999013228306,-1.1031410043380598,0.8951967142223093,1.0721567611251004,-2.622545248893662,1.2331530631587573,1.2177151813867102,0.7395163596328659
0.010610896433688144,-0.1677778460075449,0.7048507084279524,-2.0971828467483213,1.1137197273306647,-1.222052762378463,0.25767966333938036,1.5989492864724542
0.5803846071570401,-0.6954953502657378,-1.2115070984961145,-0.391260545345526,-1.3689458812257937,-0.11312844562524231,-0.264487560275123,1.273432815070962
0.8923357089364379,-0.3990783449563632,-0.6148950223069586,-0.27589212465940877,-0.7205032668612487,0.1596032444224108,0.04164107206972783,0.2746667079516139
-0.4995161232402623,2.7017588608937664,0.06155871325379388,0.5389003485071476,1.1753093208679568,-1.1909291512522149,-2.290009271375366,-0.4290905255899575
0.7268957046249054,-0.5397017070687591,1.0428026049155439,0.3472055883783164,-0.1197915485423966,-0.2973891474543682,-0.26678263319338613,-0.09851967505415056
1.4282799610530517,0.9828388888742646,0.02848463628082811,-2.117636038879026,-0.0574612536683146,-0.10871830362051356,-0.3487599936356424,0.12578974735434809
0.25843870242590955,1.0689146552460418,0.7063585849932303,-1.3033538683017065,0.45057323308621755,-0.6179218082425169,-0.4301415370918413,-1.069031548419905
0.45178262290332033,-1.2529549197112657,-0.004306655730722593,0.643649546641512,-1.160972674606545,0.8095193920421956,0.07651008717874334,0.6518063647173135
-1.0364191501811943,0.06233361916467425,-0.541454936364147,0.21456491392835353,1.2553177315358386,1.1677250735398614,0.8978275199934829,0.7446043337844998
0.8645889965495658,-1.4040618089160262,-1.8622426591263836,0.2658226691193422,1.338365365312653,-0.3450146081240075,0.8928643959828484,0.5323972695242156
-0.556429935046309,-1.1517396973112388,1.0098912700803342,0.474551513318236,-0.4843713812589274,0.4691342359775113,1.3686153149603792,-0.27843679386575954
0.4156198000583931,-0.055600438940871674,0.9134938674614783,-2.068802615787813,-2.3570007287641586,-2.4159206678665752,1.8582412956993701,-0.5870615701775798
1.0925668278127516,-0.5161848067079294,-0.17592643760246096,-1.7918629755037256,0.862603541924304,1.0984699945492356,0.5974424288447093,0.8142040651676326
1.2699469497821758,-0.7404545728386461,-0.9646796415295276,-0.1442897277232679,-0.9133236357726041,0.44431207357500196,1.4906337981557778,-0.39451646836254317
0.33392593991798153,0.6111111352453481,-0.0633260239274907,0.3633030201583636,-0.6167967447011498,0.08424547439959125,-0.018623991513986766,0.4656207486128487
-0.18606289424109776,-0.09058390936402771,0.8065114090796994,0.5307057906175885,2.0649910258852393,1.077248843934432,1.3348775720455544,-1.7799827211572519
-0.3036734147097894,0.9996698326348279,-0.021662740285304627,1.184325563044181,-1.7075903793946174,1.542161606324868,0.9166299739328353,-1.4029773377762569
1.2593649882471871,0.09984336177332347,-0.09339800816084853,-0.09730770695948376,0.9639160123527118,-0.6970535479235497,2.2367854451449647,0.6827694108528566
1.2098420668742995,0.8626196834981403,0.505420339275598,-1.6135901331452394,0.2443541656554494,-0.0828035646322764,1.2912360012101902,-0.2793709774685272
-0.984508586150463,1.541084838566713,0.7576541698401758,-0.9288627640852627,1.3881506610371293,-1.4130523112012774,-0.9284579965805666,-1.2461431262200802
-1.2456422116991006,-0.6665657218670381,0.4287558516903101,-1.1037477775354185,0.16421078175072557,-0.08368029784448701,0.21060453087921308,0.29523208365506143
1.1550388808548773,-0.8720829515410491,-0.5811254929032355,0.028927491945207155,0.9191404995046228,1.2085499667663022,-1.0305717408095254,0.324307611344112
0.6752189441118979,-0.48466621092786766,0.5058840332189617,-0.09060724738871753,-0.516327986564209,-1.8941302666223703,-0.9403860164861607,0.08960936078488821
-1.0905689497963573,-0.254114447152333,0.13769968128654003,-0.6672580735665382,-2.1497074733749413,0.6150932682720589,0.6538448394764209,-1.3794843062950979
0.325358538129452,0.5656277701412012,0.13672583283021536,-0.6499263058730976,0.2241275393385373,0.1457687153271488,-2.121717208632947,0.1112167038972677
0.8122746165709931,-0.9958712675170602,-1.413163581918515,-1.3005177089247741,1.2185554070097082,-0.21701801379969762,-0.43737663142253785,-0.7061985390953728
-0.44392699476151065,0.2400379664727477,0.42698555384504705,0.47472431167127976,-1.3806211638701327,0.4007671610348122,0.5703512168415789,1.288805386202459
0.04751638399349175,-1.7866242154813452,-0.40068344042379056,1.5177536085478014,-1.2815535420336983,0.2915187272979818,-2.3738398398079403,0.897525380559181
1.8639775720314402,1.479253456924181,-0.7835776473184207,0.23656860804274288,0.09512920173966241,-1.4675106267160074,0.1778569309590971,-0.7419240106027736
-1.7647084601243388,0.04689550332540558,0.36476675712308415,1.279441780018173,-1.2242554934642704,0.8571105989009656,-0.22271244354634634,-0.35934653929073085
0.2569035546633461,-2.6791313104020924,0.24178911801308367,-1.284357898745417,-1.5323901940242841,1.0987020275848676,1.260269261761322,-0.8658125079907756
0.2526281010215978,0.7653976961576393,-0.4096529137202132,0.6716196445472287,-0.534229099601936,-1.9074726382154412,0.7792239155623301,0.011886165338304923
-1.041040646131536,0.4376186025532896,-0.6988813054118567,0.34453842130347684,1.0963530930943475,-0.10117232929815083,0.9656567224158684,0.8919967507012494
0.1989286820818392,-0.4804535375398296,-0.128932966709634,0.5502201266418376,0.5847009434553755,-0.6481145954144839,-1.3450608156377102,-1.1937153285611706
0.052791824005446755,-0.2451352080433633,-1.153884469962997,1.442064034916144,-0.07698078267841224,2.1407885751610394,-0.5252098506887507,1.5455935869699837
0.6670637036462043,-0.7303564122953777,-0.6427382103941272,1.8977140454039434,1.074716453615665,-0.3537160758590185,-0.7111929869985939,2.2670882218353245
1.1482087166595245,0.08010380657403186,1.0226795930862018,0.7784495626900892,-0.8358743752684207,0.013665375167868542,2.1362769876456893,-1.1940560232076765
-0.15680830747118255,-1.9508400687015415,0.040579977196749425,2.2548103982097274,0.21100834940324048,-0.21507007723600993,0.8697003165378173,1.6211169931655178
1.1290541697421144,0.5590197724732303,-1.0817290577327552,-0.5614271204210347,1.522455703846437,0.06876386314584224,-1.0037787729554033,0.34575062733217626
-0.03206755731461038,1.053828169767922,1.1822054605241283,0.5970445790159304,-0.22911986123771877,0.4291045704654953,1.1486086545058527,1.4674185801900463
-0.5130969581614035,-0.7505192939384321,-1.5039472277305772,0.026893927124005092,-2.4877208177747003,0.03312915074389408,1.0502432536254003,0.1062179313861897
1.1436736243000307,-1.72698370384271,0.5520781541822023,-0.2081238088032483,0.18463796701979385,-0.6288956346366611,-0.07396831440391922,0.35927426751981983
-0.15222646246069726,0.3607043102905494,1.0866582084952654,-0.6971522345207612,-0.17480092206942222,-0.4144776702523831,0.806112757583281,-2.8989568178843315
-1.2810803066619383,2.1444554039484034,1.1255793507620642,0.04861521818986688,0.35029732929911184,-0.8732974680181866,0.8792836245267425,1.0895822301780709
0.25437105020579126,1.410995396879617,1.658168645824761,0.8101139420422782,-1.3872781764393312,-1.431650780889861,0.9692068246986713,1.35844655117441
0.8266209039309103,-0.32489976982203544,0.6823658842194693,-1.2475762907872403,-0.6271792146917133,0.40984923283626273,0.5627940561215312,1.5555416872942653
-0.9955079459629324,-0.20471520669228432,0.7862433849288052,0.9904674475471261,-1.044103412942453,-2.1935947722447504,0.6057515940152246,-0.3731195004852274
-0.7025900252980268,-0.7754463839049951,-0.5422015549404133,0.6250946182237671,-0.33079296122113194,0.18770657024245396,2.6553139171410827,-1.3534143115050337
1.179211306486668,1.720060485686273,-0.41757498689705197,-0.6490770158570668,0.5221550105158302,1.3667909954946118,1.4167671002402542,1.6041996376794705
0.09753712011337938,-0.19560925549413294,-0.3282358263612905,-1.3323165392330611,0.34837777253948443,-0.7705765399618982,-1.3302240947455621,-1.4225133143011894
0.23127738131246112,-0.026351711207565107,-0.0908866884343731,1.7389592329803971,-0.745209948774244,1.359191157668445,1.3106386932610883,1.7156772649651884
0.3641531027503025,1.1807978237616354,1.5352263332244447,1.0825250158998605,-1.1432160594980072,1.502562958795633,0.5707704413814282,-0.5537649379740462
0.365163801229329,-0.48246362915224444,0.6625546327518096,0.4116965970722416,0.9145729294153504,1.579786484141351,-1.2473687660438628,0.00826761930303411
0.7288544480073593,-0.4498532089907586,-0.8417685752142844,-0.11542421799851262,-1.517538326096956,0.7759085860277232,0.7033195753441587,1.2850030419329195
-0.15638519980772086,-1.3165464762036008,-0.28854531964003016,-0.07442948311312118,0.1870932565007642,-1.5103049550215994,1.3316523858804519,0.24306563842571327
-0.02718863818791194,-1.8469421712580372,2.2107303781834995,1.293792867866825,-0.10242889124307487,0.6487488985981822,-1.277971882200503,-1.6798620127277073
1.1275625192593772,0.4642088860028898,0.007133600511300934,0.5972379584862958,-0.8292369340928393,0.42552272464243707,0.2763828468818846,0.454674926810209
-0.7277243964990939,1.0365168552733302,-1.6630261959996449,-0.3210199204693892,0.22984269065056703,-0.9048565980366534,1.8007634397022276,0.7107169417715327
-0.5252309807167319,-0.4781953177348065,-1.174630617876942,-0.8308815211003235,-1.2995010586002809,0.6834892501224245,0.8672964781337343,1.9025652724913586
1.5664559632705133,-0.03613745429763993,1.1676882657205008,-0.6642496773564571,-0.48780772959955293,0.30742446947105345,-0.634420287922124,1.7802372439360505
-1.3316940970129405,-0.6262777484855208,0.359160502716297,-0.6416083810031127,-1.5684485497641618,-0.9986265099100552,-0.15772528652434972,-1.4177857980297686
1.6992755565453752,-0.08581378467071668,-1.3172456704749846,0.9541293790421519,1.3271624679704375,2.3136289524003795,-0.6083920038316899,1.2082084821314523
0.7313574326438561,-1.1860412795933406,1.211043110952496,1.5709940540264957,0.08443791209491769,-0.08996610390709367,-0.7491881168506471,-0.8250477597798069
0.04712238922129418,0.4873478024670506,-0.6614343099548216,0.6221718547557238,0.8494969447563794,1.097451246598131,-0.72131846232015,-0.9923210682434241
0.5653689458416469,-2.0146065593098093,0.6919390405415583,1.825214620143886,-0.9287487610984493,-0.5208356705297573,-2.2178011500514394,-1.5026544456612294
0.6865867539878383,-0.2656415607137466,-0.05898055738404513,0.8699748950983852,-0.16511473354938533,-0.9407319799163183,-0.7646561854147013,0.9078061394660693
0.9360267883775757,-0.13680548870241319,0.813087935342726,-1.3925712919598359,-0.49545174124010904,0.4417732307387088,-0.327181273851123,-0.1907130639755095
0.8362425350132444,0.8340461424699753,0.33299228944606457,-0.6226235612483738,-0.6677874537498579,-2.5466364574583404,-0.887175167269175,0.21685337361839663
0.5127398589894356,0.40564739741806,0.28473939929319475,-0.8178175106417924,-1.6414626154061827,0.6026619929934692,-1.1972364183340356,-0.6229251541304165
0.6450017801798614,0.8445758011102136,-1.0544626938783372,0.19836760290587688,0.6557841865770235,1.7761332821685831,-0.7309581120429228,0.08476227832478775
0.33707298948118797,-0.3544220275768259,-1.7022463494545514,0.5747603006996438,-0.2629046172578034,1.2207424363889199,-2.091844712958517,-0.14399889123939083
-0.0820682925399961,0.5121376969273838,0.47461785591732447,-1.464188521278865,0.2422675131109604,-0.8801782462451646,1.096855103127793,0.6261565411213493
-1.3082521022180649,1.8969072982173472,1.0830066592235588,0.6175480565754813,0.6481240099752585,-1.3414460164188018,-0.4450372390317205,0.3529189147682621
0.3246827738555267,-1.4731260660432643,-0.14381559483948575,1.62039961346759,0.9220404359673382,0.7603098123982971,-1.1419467264102083,0.9181874752223199
1.4548116033042522,0.5141849617186851,0.17477042395080936,-0.2627346244952953,-0.42839319694757005,-0.14161249290321778,0.04821136691368931,-0.3562752491194365
0.4056462825173624,-0.9284796600748239,2.586043400001366,-1.4905979794874484,-0.06169086446880408,-0.05237391715183387,-0.6931096411667698,0.8635606512941753
-0.17802583222184631,-0.6072299073168631,-0.19575036073228938,-0.2548906222746838,-1.5855455052003893,0.4089269834881504,-1.7781705760217736,-0.7089053419529712
-0.5943233537890986,-0.6991568051052051,-1.7235266524777164,0.09390408945595503,-0.10925850206346006,0.10784291072710091,1.9585602553618984,-0.9073369309294648
0.18904690878106603,-0.4594365826877749,0.3460196837714995,0.3322007112638687,-0.7210322941650282,0.7595828341781856,-0.3931130168177319,-0.3474123608674776
-0.38835006112193,-0.8597631380537013,0.08070473444985403,0.8069244408061562,-1.2521370805384657,-1.5684461449907598,0.11343435859798134,0.28543278813089523
-0.5898755009650049,1.5902613290318013,-1.3888898987877702,0.14140382908078064,0.9346733520725975,0.6733917655716565,1.4516682501264293,0.6544377796480129
-1.2748050643554951,-0.0345346391670261,1.3783643742813962,-1.3997296200321214,0.21970091331187988,0.4153777155573091,1.1022710895805463,-0.7737851095661917
-0.8479461960063173,1.4382281335831952,1.0433319220984965,0.29104721356006075,-0.1258701582968043,-1.743792274457648,0.40702507945454497,1.647954704197633
2.006826924093924,0.571645559540425,-0.7755635148071519,-0.15491768760092317,1.352492404801879,2.083872382749096,0.8128426162498672,1.2983016771909688
-1.8391447723602097,-0.19906002776510875,-1.3950401053532877,-0.032032934635868385,-0.12430432400221342,2.543232009398588,1.3903458130881348,-1.0754149218330087
-0.2902752442789617,1.0552868025156448,-0.15274451408543974,-0.7549164763273469,-0.9239317051278358,0.19599111637922742,1.4916244976068995,0.7626009845660371
-0.057721879730868446,0.00045010369048236083,-0.056073159311162565,0.2951154419771744,0.29801381707090663,1.1456952568463192,-1.459338846932635,0.52660780007247
0.946794947706806,2.025817480677296,0.03948122728782954,0.36533411612757183,-0.4217031311523133,-0.7644453402064874,0.6977281746951435,-0.5721143386557481
1.1723645416588784,3.4022246298215952,-3.7007660557168105,0.017541912248277808,0.677405200337227,-2.57482812249565,0.40785861197096734,-0.6237458636150293
-1.2204346564972068,0.1621181229159,0.4206231225859928,1.2243054312457262,0.3897106901796581,-2.3714715454969317,-0.9179150566309067,1.2620092250723223
0.6455170239537761,-0.09178128655366154,0.6451812616872629,1.0928191082306078,0.43290637405086707,-0.19945144189221414,0.030775688272480988,0.20225230003842098
0.1964405974149198,0.35074134448844263,1.6882956907005529,0.8040891658346787,-1.247904392203081,-0.5046723800453231,0.5374645043816768,1.4587351982020647
0.04811865744765502,1.5880503673874489,0.9445446256629969,-1.1140089299974014,-0.6734030713029472,0.8710449027588996,0.14448326281766477,-0.9424638461417705
1.0417413053251676,1.1208935316695021,-0.39479669197499184,1.02942892631092,2.4324623031065538,-0.25328153046280727,-1.7182771233061178,0.5924823796532984
0.37342638194666333,1.325120191724562,-0.4259596368416505,1.8677439502633135,0.9411781469037596,0.2411058872399428,0.8216199329738094,0.18856399217463224
-0.9226100903084467,-1.3224308408868153,-0.6411470069705641,0.7915682002482842,2.463798024313331,0.5657008433132703,-0.7583616095412786,0.624594442730765
0.8518752277174734,0.6930603449528395,-0.8483627767380402,1.3385902285528397,-0.9264116760457736,-0.723094459363504,0.44585299166434766,-0.13660419921146857
0.9120354508426372,0.8389895608262548,0.09717843849223204,-0.36675763425189983,1.4751606511112072,-1.1191093440526834,0.6757384441283594,0.30297256713575077
-1.3917509963476464,-0.5455768812950709,0.16973155266864196,-0.37309011611493353,-0.5847062092875064,-0.7103957702363651,1.0564895836874912,1.2210439013149215
-1.1581632672093927,-0.172736557355514,-0.7339753285463058,0.24820180678869921,-0.42397050532504293,-0.28206740178546846,0.12438032854083461,1.430751805295128
0.11563677108490462,-1.9640472002918616,-1.01268694808282,1.323319610323351,-1.2187005959225987,-0.2486565918575697,0.205340836930741,-2.1169223758032127
-1.0329570615096975,1.3245470116233948,-1.5984300309646702,0.05248384228625923,0.4972977513752651,1.3940132159728782,-0.9466997299878896,-0.8590340873705513
0.669495240422713,1.7697043171778093,0.6980716427352555,0.29589312899679643,-0.7037492166100755,-0.6746497183585791,-0.38523634941320123,-1.1162098663716988
1.0802542954959646,1.555946124159158,-0.6973847354186292,-0.32101310154309043,0.12149625420158275,0.2163057720480118,-0.008261150573903,-0.31333584625408306
-1.1030615338788219,-0.38379923323269977,-2.286121171129319,0.35081553640891006,-2.0090524728572157,0.21909248159585182,-0.6019178499298948,-0.27604619082857107
-1.482780711594074,-0.3904812452061819,0.8083058171908433,-0.24388492866039976,-0.37666346103619547,0.07894515221373358,-0.32129093787647606,-2.1598797736406934
0.242158369569005,-2.230463156765119,0.993764507803551,-0.0712263852926535,-0.4567920301317841,0.5551208126613836,0.43833231839502823,1.457082441935177
-1.4811891197811442,1.4079976420106637,-0.38542679535243984,0.5531951007425528,1.4223044936006406,0.49947574551754265,1.1742971579083346,-1.3290823431456174
0.13349028955364983,-1.6649369527489897,-0.5415891369577756,-0.085558388348303,0.2870646614412998,0.7867680107430755,-0.6450937188188561,-0.9976586321231085
-0.4512911224819969,-1.8063769661746885,-1.2927961342290737,0.42724248315193153,-0.11836179406910768,1.0258688232390356,-0.9332174469733648,-0.34810839166818597
-0.7902602811781642,-1.441295621488814,1.568002530107573,0.7099354833196473,1.5178497009795269,0.1617445092930904,-0.09279263384726472,1.0210323445222054
-0.7172369866162263,0.03154470001704458,1.218693921801852,-0.7110542563289122,0.5835394881042925,0.6778802238662898,0.9711869803462526,1.4405302859198372
-0.23692811191828117,0.6291215444957962,1.1445945726595745,0.789314816284214,1.3985455724285814,0.6531870445163508,-1.2665051621894778,1.7870939230087548
-0.6592637537067019,-0.07856123499678624,-0.10138981727484131,-0.3690437376116336,0.169493520153314,0.061386818660556765,0.03618019654549708,1.8645077850616092
1.9622174135681336,-0.16015266567883799,1.1593426595464174,-1.9727301149987637,0.39375814403772336,-0.5671577150370862,0.07801258427936339,-1.043664990237015
-0.20781809197063328,1.1064436785948233,0.9913463655393296,0.559975226565447,0.2612171343137706,-0.17157505181049978,-1.3758972273099526,0.2912385414404067
0.4953957193610564,1.9952340152452892,1.8048117256403942,0.03998085475070476,-1.4340945364115756,0.29621005733227646,-0.16512378480473158,-3.04933226314823
1.8463931619798122,-1.1679989183777162,1.1851203608575005,0.47485365489434417,0.17959898913376782,0.10089330271233994,0.39257001860979196,-0.5603036597828659
-2.180316745786357,0.5197178356988472,-0.4732138028128915,-0.9033767859755651,0.16334764237894545,-0.13613055009790506,-0.36879283840428845,-0.9120686460631091
0.23085052263713426,0.5827425544842565,-0.6975659367664808,0.8856011490171523,-1.1204999024288536,-0.5543824456526686,0.14909485367740236,1.8151474297660823
-1.324241798350831,0.18028550925553527,-0.1813016427847166,1.1419789593885474,-0.5239414392658082,1.4795759919668725,0.14368779211692098,0.03166123559380824
-1.3068345603501226,0.40090588250623915,-0.7063249918756062,1.7427572877944544,-1.750872765891777,0.4002797195104258,-1.543103891735354,1.1456132751557384
0.5329579434054408,1.2397691142579657,-1.055554231651059,0.521838673100304,1.837521950614909,1.0781289672647227,-1.8625741279454289,1.3190668212795496
1.5380784844479305,-1.3483581222967007,-1.0778323673716765,-0.5560783157058212,-1.4014195847403734,-0.25955113486206244,0.24536460263424972,1.1907384664351115
-1.8918201581680936,-0.4808446528390784,-1.2746166144815319,0.9030390952295886,-0.276297373020077,0.4301452923666902,0.024373109534145943,2.492072049915106
0.2771531156331471,-0.8884933157160757,1.1358570886880885,-0.7085001687820236,0.3571763286819193,0.6119929388978952,-1.504310132147103,-2.5321952137949952
-0.4588806696747263,-0.09278023695000683,0.23242068665514637,0.09633346641463457,-0.5961024344198942,0.9606572707749801,0.4039402413704002,-0.9109863291723934
0.2944158657370812,0.7542921332637645,2.106832729069979,-0.34105038494743817,-0.009208700967595308,-0.737951212472029,0.902328677652824,-0.27646302646097043
-0.50581015764845,0.08003829524929332,0.1896507988905212,-0.30299785286411185,-0.6198726939686555,-0.7316460834025387,-1.3334886847075986,0.5503152280367585
0.20682295249256116,-0.7161948244141297,0.39358407284453245,-1.9357957792165468,1.2707891076459357,-0.003180109587503864,2.3519273480172327,-0.289100358414116
1.274806360581959,-0.38362133471382215,1.1451724379914907,-1.4640692218494211,0.8632420669697353,-0.050948602393685226,0.5141057604607602,0.1294148260559094
-0.7218028668633878,0.04921900035348508,1.8766664889739033,-0.5148458662659497,0.2869570157246227,1.3344444535753266,0.11345316376934912,-0.8461875183632731
0.35431483098698197,-0.6803319203738837,1.4136597520035539,-0.6049908160016901,-1.4828715990663452,-1.0693989492441807,0.20278823902694282,0.5916172432261876
0.9100777202961261,1.4318020189177922,-0.8437380827349775,0.4622817332725404,-0.7256988575512718,-3.1774251430289557,-1.3365781491060158,0.41109389595678436
0.6421112831692901,0.7336450003876337,-0.520029065744556,-0.36563590962331316,-1.9627034991065315,0.36977176416147034,0.19012427785033023,-1.5722737738290515
-1.4417781464186232,0.1863282290750212,0.74776037996709,-0.33346089029993486,0.549448501056583,0.7278824852397476,-1.08272328341581,-0.6176714718911768
1.0078781415962983,-1.061985782977772,-0.3322156009884566,0.9272613937836189,-0.16530200418859053,0.5452678242595486,0.3021301277964926,0.36460448605877266
1.3304696121740265,-0.6233266501292427,0.9406983502810783,-0.39204245318858627,1.2263251061737925,-0.0817379539763367,-0.6078394030287406,-0.5374522493281257
-0.5464723975054704,0.3738773259054094,0.5081837711820967,1.7944727239815834,-1.36693275637284,0.10027141328407678,-1.5324889413085911,0.7446058557820782
-0.5730777518200876,-1.0674671128475783,0.13072677520138656,-0.7871216697915945,0.5832692393421591,-1.9979757094434367,-1.1803567317534274,2.3701784605431033
1.2492241336039256,-1.31292272408131,0.3347363330063615,-1.2528156496122926,-0.6036474396318076,-0.7037441351039018,-1.5699292893105843,-0.2794846522138705
-1.9312975690548688,-0.03034185515932587,-0.6451560126647877,-1.6938621391507012,1.6930276222046476,-0.056106717458620295,-0.039989292501596725,0.07312470538642075
-1.0506509161554192,-1.3982828565843952,-0.11611302565788897,1.2669212195930306,-0.14421159587454535,1.7024391245412107,-1.4984196477018457,0.11655133322542988
-0.43876292021953567,0.20457420824300163,-0.4116364897955839,0.23983331126148083,-0.42641137268052304,-0.27050242275594494,1.201071520207933,1.5563322295995274
0.6521901462866205,-0.8032489679312663,1.301481641163324,-0.405027478730135,0.5361865345566359,0.6246231238775252,-0.2509145221418129,-0.006387383232493293
-1.5684021210135843,0.0180398180376028,-1.8920393317268696,-1.8149594371742137,1.983538735322711,-0.24317940263074495,0.17756675785063838,0.7208690645419153
1.9543748131305965,0.11871283275557616,0.937098604107753,0.2829967586080955,0.6013843698158587,-0.331403295216682,1.8252776972024891,2.078889573853659
-0.5152017540733641,-0.5224466834486627,-1.3722944829082437,-1.636380865024294,0.8540873390125664,-0.9064888723522723,0.41274418873766927,0.2731051657312383
1.1478990892777943,-0.8092044085209724,0.3883218170139617,-1.112163033420596,1.516487267674384,-1.3334894620774238,0.28295457976458543,-1.5690694829677518
-0.17993489748525018,0.036592877204086105,-0.41137879962924656,-0.6784254594942605,-0.8799769278379483,1.5305696601040575,0.4382379826680353,-0.8851392444849832
-0.030610462130138523,-0.9744522230587137,1.1275251714102048,-1.14106220099876,0.7432636969809623,0.4644366157045401,-0.9026795835634074,1.0738438884480337
0.9079362052023284,-0.08325520426763679,-1.934057306621895,-0.5149899870536027,-0.3678874187745801,-0.2963694126047289,-1.117708603616306,-0.11331402832691306
-0.09189881689137677,-1.1770972697731064,0.26528282702969247,-3.7774210012844867,1.5324011654316765,0.9629215925217866,-1.1691728440355995,-1.2395796908937715
-1.7135626321199584,-1.7191590902820795,-2.5045532279691023,-0.48340929478176037,-1.0090195784435205,-0.12196004950976967,-0.09585214331240263,0.05177365489382275
0.9644013982124346,-0.5895904237409687,0.5285596322597869,0.8158910632380744,-0.9611827294291937,-0.03996853014258015,1.8453283443943491,0.44997247038456595
0.6725967868168816,1.3882110854631948,0.0657645017638981,-1.3427731364188362,-0.0416940790147296,0.5467358187353414,0.24871573010361045,-1.7359406848751624
-0.20434459930189108,-1.5625364504265313,0.4844690958233764,0.3689312830846611,0.3137025991251105,1.3048800523739326,0.18325595653333354,0.559460268793301
0.00701339592977294,1.5018015427811044,-0.1076249291889872,1.1363294514428448,-0.29161501787199906,-1.9820978266985345,-0.6005062602234784,-0.6114851921278078
-0.9614511556346003,0.991096272056939,0.04437138189598413,-0.19223281249577587,-0.6925219846597851,1.2976901646402628,1.4876411343125524,0.7261315812762476
-0.44995728540545976,-0.586400697719424,-1.49115955516461,-2.8259546591093443,0.690693679190736,0.4316344810175997,-0.8895786622018067,-1.1247246654490712
0.3635091551821587,0.6816641596249946,-0.4986378982709945,-0.16536308242164977,0.6060011407912764,1.1609513889595289,-1.8397118716483662,-0.11121224703793033
-0.7390072960375028,-0.4074081299260448,0.23378937271363298,-0.14744417124283574,-0.19321111734955324,0.7472137851785103,0.23459967252656294,0.02828049672689331
-1.475582260619281,-0.17427331160439477,-1.941002261243022,0.4422248816802256,-1.0770814729662914,-0.06486952393055555,-0.7944397988333946,-0.4376723949846326
0.02005364881091884,1.7926506948410663,1.155697332328651,-0.43020365565909613,-0.46850329121879386,-1.930640227930167,-0.4152676336990387,1.1078707934142873
-0.5207887189889643,1.2889604267763837,-0.18591374811334133,0.6211826956710166,-0.6295703280885886,-0.2657453094788378,0.9560397498066061,1.3467035325865588
1.0124861858858833,-0.5919600794174135,-1.4510285467480508,-0.9720145947593998,-1.4315115430269327,-0.5125468143697495,-0.2906793103378218,1.8696839716234281
-0.5602395602069333,-0.14424963895926193,-0.3518807213928697,1.3153351810014595,1.2081228468547545,-0.3707727618897303,-1.3489988294300965,-0.5178269539285741
0.5948266246067483,-1.130834500319985,-0.7800828659784163,0.878685478826062,-0.4187550194323601,-0.6496051990057964,0.8712351482683414,-0.5173569049574265
-1.0620167673616967,-0.23946753670825477,-0.4389725647261905,-0.014284391379860725,-0.009845484446121733,-0.34873316883441174,-1.0746819108771495,-0.3241812371861856
0.3690366857419656,-0.20694342545586242,1.7125100382961067,0.8859349141166121,0.31528579843591836,-0.01116936012730125,0.5070327034903576,-0.4147026332840641
0.6794746171299257,-1.446522608276496,0.6224198898722972,-0.3093282885354135,1.1107607451837287,-1.6588440542744698,-1.5971155704268485,-1.2733667259897745
1.1908301801865817,-0.14351703100739913,-3.4037263026836526,0.04307112677825023,0.6642220780220789,-1.478904503382916,0.5914722885137387,2.0201096679079336
1.6550914175033393,-0.439991069462337,-3.324239927702811,0.3086631577204757,0.3817051501557751,-0.40399303092558275,-0.5483668038003604,1.305494015247483
-0.6737440485680949,-1.0609446242508815,-0.8647472955924489,-0.07377973419009948,-0.0039367835675596105,-0.4678280321824957,0.3775813219949662,-0.3584972246539224
2.4635542555782433,0.7122632631542841,-0.2401123171561357,-1.7643361048388038,-2.5771883331129173,0.8848434866403663,-1.9750832647581995,0.5657464572130259
1.1887946820173387,-0.3002211814118943,1.8706339253570445,0.1635337207383877,-0.6940700453528444,-0.34739664202585563,0.5943641557830458,-0.26606992694081666
0.32697390889511474,0.6815522973644186,0.9287359531018533,0.5721705981247385,-1.820976946297851,0.8370667413811497,0.2088512761926589,-1.1284224692575047
-2.106780440413631,0.4637670387390123,1.0379291358681826,0.16176344490768613,-0.15015075618732046,0.8798099705134924,0.6844904481766594,0.9877642478946286
-1.0939423680411153,1.5770291181330331,0.5353943919120359,0.4962388723850967,0.060188265945823174,-1.6760289762879295,0.5075534847115524,-1.2263931332887685
-0.8602690734290469,-0.4882814436913338,-0.8148639221385938,-1.783936292993744,-1.4507989661158345,0.8313999987499622,-0.17513520535008345,2.3969575786041006
-0.32623015210499706,-1.3864716772348362,-0.45396071423258194,-0.6340899653539921,0.6672015770824227,1.5355224292309873,-0.972535843467748,0.6230627038594752
-1.5000964425589012,-0.5435879746419428,1.091327916013833,1.6360168363982124,0.9639197472093961,-1.6389170580965569,-0.3663319109670297,2.0452724626422896
-0.9139592078158028,0.9882322667466557,-1.4299751440586366,-1.1852035075529075,0.23242908588924963,0.7447166207651154,-0.2993256320711248,-0.3867331234533697
-0.7650128416732822,0.2928938132524247,0.29870295841819505,-2.2607504277327424,1.171315956464817,2.0121396323022713,-1.78540334672423,-0.5302157976867244
-0.4975939489484836,-0.4948688205571767,0.8071802073143316,-0.8608253321096454,0.642335137237828,-0.22998971472839594,0.5038932150766351,-0.3835628303786695
0.7036176781269653,0.929616321075885,-0.6390316798345109,-0.5787789568737725,-0.25716653975454123,0.37424577425743544,-0.32334786739512705,-0.40932631842396866
-1.300511774868719,0.01615045054463882,-0.011176251495818192,-0.35306556906306796,-0.35016545694681656,-0.991938757246648,1.09475799263296,-1.4958185633978383
0.12598911676716576,0.918018934975492,0.008232090614331866,0.22407194303150332,-1.3997676525677796,0.24973264471532583,-0.30824600442384625,0.362219378442119
-0.1912346744082159,0.30445886578533093,1.2808959075035573,-1.4407164620840112,-2.2691348230124495,-0.15563258196219168,-2.1608135611072403,-0.7817209467694296
-0.3855939738283123,2.0001129830317503,-0.22486031319101268,1.0253243682658824,0.6207563290162323,-1.1782683094280535,-0.9872232142814712,-0.7381904977997041
-1.0427943892015317,0.2137788507488682,-0.8652616858731574,-0.46354263625482145,0.8316660081417239,-0.3876528295951096,-0.2251218552582546,0.5527096107222599
0.9983665331541803,-1.6440100259512342,2.403287087256039,-1.4213376673906868,-0.6725837763791326,1.5947762360857345,1.6633196037349698,0.9279439953523689
0.8945628559927903,-1.0653451750974345,-0.2958493820373674,-0.48664872641447066,-1.1491464369075943,0.72727757256782,-0.6355294357372672,1.1688076009069672
-0.8866211613081855,-0.01079359057597552,0.7174510982341737,0.3548693149274716,1.5669244861772975,1.6257320606709509,-1.381370997399584,1.0299615385578869
-0.1060360787479169,0.5743499523761783,-0.09352254947239579,-1.0439144588454712,-1.7214415126533285,-0.9508029445519744,-0.6210501506979708,-0.08643871092574507
-0.8429622525254127,0.6591235666483447,0.36334223623425166,0.25689238410112525,-1.0625381061499612,0.8209796305074668,-0.9078721877736964,0.02810953761884603
0.2797976758627724,-1.1400419815322236,-0.8571378808802206,1.5017543315322013,0.43247167718968604,-0.5609986390530469,-0.10957701974423763,-0.09455992847923812
-0.44526492107351634,1.68470957047044,-0.49778049207439096,0.03587833371735704,-0.6659528562675028,0.5519061557844374,-0.44257397034254364,1.5519949039684722
0.13661999008817532,-0.15597648505758438,-0.33033318827171226,-0.5960515648650275,1.1266001350439012,0.21784645335044373,0.9502930371112718,0.31843319648455715
0.8132314940975355,-0.6362316089542431,-0.9437629054944049,-0.8117818384053189,0.44794317969853653,-0.000590008185794649,-0.4669436007692962,0.5391629992676651
-0.22374192872916981,0.6437165663107367,-0.05993024672040657,0.7686499209024592,0.6898440602048732,0.046929967794537404,-1.0466837634621111,1.69029567232171
-0.30543254306584494,-0.5208292222249952,-0.3418537399933975,0.0826034671739447,-0.19403481408081263,-1.6363117927155686,-1.4141775281220827,0.10289627818764888
-0.9946471022035687,1.9329632354436745,1.4321129197272326,0.737159337868068,1.0210676217801726,-1.2466952506522713,0.7947126275605201,0.28326785516719216
0.7578060276797423,0.54521250899227,2.321772854781968,0.11703935383174474,0.6012575478551048,1.3149290641123341,0.5512604282003614,-0.6530758356833691
1.0957455633559383,0.20439712376019675,0.2963043529851434,0.28789456584618056,1.196455386965569,0.8971712316384365,-0.04353338512603357,-1.7000980801860515
0.4241010071787504,1.1785366391927266,0.1390405235393057,1.1384522005225381,-0.3969929879949997,-0.8319586963847257,-0.5330365352065957,0.341660964339336
-0.2408955323088472,-0.6286613703936599,0.054769447357684055,-1.013854370594538,0.20839592975870908,0.9984654285924857,-0.24119084017754303,-2.9609092121516962
-0.07010660521594671,-0.14754430996159498,-1.4365902254013767,0.22587722751126035,1.7405236294961262,1.7096941332135165,0.18335877498348455,0.5145966253631113
1.1980332754663052,-0.13866661978091585,0.13596840622167347,-1.8261400274581225,0.4409489037851536,1.1483501717057636,1.1680282343855848,-0.458267067378292
1.1496014249350568,1.0577290887144408,-0.2490186746156577,-0.02984681832205938,0.7898259152033646,-1.2942850853660235,-1.6878673324870077,1.0697435970784024
0.5414374923397626,-0.14159070459255801,-0.025127552676474988,2.4744224377745914,0.04035653796748473,2.2263167277750435,-1.2617217909229053,0.07626110177205885
-1.6629698911166841,-0.42747533497546086,-0.4891937308992225,-0.5819077505583674,0.08444930175847132,0.060352800588294425,-0.5947980769644279,-0.35556773654782353
0.5171535141948276,1.754228710966559,-0.14413149496507188,0.9707521397186093,1.5805961621365623,-0.585826189451495,-0.7739250491798393,0.6707017250201901
0.5442155242301575,-0.4850147253259424,0.6589683052441005,-0.18039471331007884,0.202677746860596,-3.171350315488618,0.9421052834514244,-0.10238215940955957
-0.6486713100973145,1.1106381683135347,0.28569118392315773,-0.10649840784612825,-1.3857808885011051,-0.38804980792771904,1.4094216165944178,-1.2287686442373567
0.6913485353111833,-0.9031738258822595,1.0513512926373791,-0.15487129746478287,0.4596834170334766,-1.1749452017191842,0.6880850983925574,-0.5822009390193785
-0.2627627276013353,-0.5686010474351785,0.6846240922797857,-0.7727959903127988,-0.032307201843858345,0.5036462076557944,-0.18807789548724435,1.599066224202703
-0.5167432041890017,-0.07169273342264579,2.729554814656345,-1.9135672272905473,0.2571628796537121,0.32588072387941286,-2.206394521275019,-1.559615643459209
1.038465124524238,1.3728771307256395,-0.10785888488299768,-0.39198216084869714,-1.1997189857734345,0.15110990989807077,0.5784958135024242,1.7869339627193217
0.2002860740130685,-0.8877251137696348,0.7008850401179995,0.9191806065585495,-1.1419095710008633,-0.4937877596293086,-1.6510617085658181,0.8016932700263235
-0.3572491186677276,-0.7897071242449525,0.8999669404912753,-1.9488444851264044,-0.7459955389898543,1.2389172537230224,-0.09676940353244304,-1.3327308616470095
2.3242847019602038,0.20552099116321765,0.7548419803578625,-0.3778080311208395,-1.0688647689584418,-2.1681314775032403,0.1378822082440385,-0.5465609139444783
-1.915164328966958,-1.568670906594688,1.6007309212513205,1.1221966727841948,-1.2531211256144832,0.11668888106956936,0.7695635537697333,0.06802453179229563
-0.9746401008210154,1.3757631035500073,0.11947991541467017,0.6453552761938633,-0.37755907300741526,1.1763183854471098,0.29579722011787507,0.5116817946089135
-1.2508282068168062,-0.9025982702331541,0.5628532961552282,-1.8776653305928803,1.0647388858263327,-1.597753905918433,1.1362423783620512,-0.13161524230460145
0.402097137918224,-0.6786371068246962,0.18374819520858227,-0.5518274937588601,-0.475229312182879,2.1678645398181082,-0.44861163574120594,0.3936768110246222
-0.028209090463380188,0.4994766448182125,-0.6418932549419967,-0.4019018358891678,-0.846485808634184,-0.5176694946016172,0.3422545827771451,1.3204615279204137
0.9612056011074481,-1.1331618744869698,0.3526023313026517,1.3832708530526017,-0.5434777724448296,-1.3134250868237607,-0.6610488793315031,-0.19373255707624132
-0.8539954979171415,2.2192512845940793,-1.9159194827342012,-0.5796996686859506,-0.13027569131821914,1.5395298355073102,1.3745519299665514,-0.7922791932962526
0.7455191004678989,1.0780185827933435,1.5511364337841547,0.65982092500867,0.4907751294933517,-0.28507962550393756,-1.2195559354844365,-1.074740453171993
-0.14663672817787082,0.9138622525338035,-1.5123582057615006,-0.7230690849921128,1.883331374748745,0.590865495423322,1.4153922006007325,-1.6165183368729021
0.7554829337449784,0.8326899284872219,-1.2609804820953316,-0.45451224818385183,-0.3037838189774926,-0.4927963879879827,-0.13562966437924207,0.8089235447217893
-0.40090661086889334,1.000501033708601,-1.7469716291351942,-0.030627585269490217,0.3620211457633575,-0.14595276932929652,0.5911382763108128,-0.35054200611185493
0.11972765480177575,-0.5049967127229864,-1.2961747743981142,-0.6038731194390755,-0.23262590044786205,-0.6647351556279658,-1.369866074525063,-0.28136127618867895
0.45204817391287433,-1.2344279595557808,-1.5120471418233956,1.508488003152265,-0.443302048760411,0.5526172119664201,-0.29432739696580956,-0.3119634679600644
0.15422024368865586,-0.048565503801944666,0.22546827315677398,0.13900357227359303,-1.2108881052432747,0.7780242204382855,0.8388143526097772,-0.7981705156734012
-0.24902637108602138,-0.8461518937260011,0.27398405478877164,-1.2373078633125232,0.8169382964820452,-2.814592167352181,0.03850445083272294,-0.9151760974016828
-0.4730576112562655,-0.511992014209898,0.6542009045021044,-0.6311482819491717,1.9438951500681703,0.37228955693985255,-2.2580183635665856,-0.8794653898901438
-0.07252606588778097,-0.9358295355027606,-1.2299014733310658,-1.9189150263683936,2.808802756927148,0.05133407492024842,1.7003466553130497,-0.12179367244213957
1.5076949469211958,-0.02116473004083302,1.6258832574080575,0.05501846478519917,-1.3459681369261425,-0.4558454052416298,1.0221366518775639,0.9268562781176763
-0.2459966152522973,-0.7045452666546953,-2.1987460571987487,-0.02226294886509718,0.6343452554609723,1.1743346944482724,1.1444928343041327,-0.03177858951565113
1.3788100159464662,0.026259394319741048,-0.9796069218365218,1.9431632377634651,0.5045717144256623,-0.4096245316669354,0.32411253919961824,0.13453573326987867
0.3800159237018003,0.8786807660398877,-0.18792422569299544,0.4730877899041127,-1.1727781360077136,1.909396716541822,-0.41136229736656166,0.36530914673659814
-0.2647461384098363,-1.5316286295378851,0.2288356873215763,-1.153037621941003,-1.5448227334763154,-0.20444623217213237,-0.5229765102778319,-1.5578468627617337
0.2548357824533152,-1.801174019837282,-0.34009002391353943,0.2955813820708411,0.5167444473758249,-0.9210987905369824,0.7867101697657867,0.4062958780884448
-0.6210426476768504,-0.4749242212565241,-0.012920601993738559,-1.0077669724008327,2.3798244457440068,0.4180856728006494,-0.8776560482905061,-0.6037215150469738
0.645044832022568,-0.8677682976041944,-0.601816627409625,0.8891530421013489,-0.5369491896732935,0.2504681640275916,1.3988536395681077,-0.7672075356947177
-1.445817579515733,1.245188480413116,-0.6515444853627056,-0.6563941739084799,-0.7681397483779738,-0.9030632722934624,1.9150444699626965,0.3604421696361104
-0.07438610544706793,2.654729610908217,-0.14127838566967746,-0.21582309875291789,0.5864298343633516,-0.09111347803463579,-0.3273595637523476,-0.5224634380921926
-0.07340066164410801,0.11806400350795244,0.5656442015806709,-1.8132091981362406,0.703746808913215,-0.7508942104861759,1.0381669410133163,0.8785161271092267
1.1712563665313132,1.1483555159424037,-0.08379613537996497,-1.0816380274587107,-2.042408650181012,0.9388752630503097,0.6533860220866919,0.29772247556184694
0.053716165191005916,1.394259808658331,1.33588093502706,0.7853531123769317,0.3031462579535325,-1.0747418604102754,-0.8225846393687298,0.2149927535260426
-0.8153397892120021,0.22887114032748107,0.694399294328612,0.19012385498156906,1.685573042804816,0.3626705218530586,1.355783445923769,0.04020582546345308
-0.31621076750250093,2.587996983775381,0.2914683033138474,1.6524922232953503,1.4668195196587972,0.14492969480655227,-1.4138253355445156,-1.6177685590885995
-0.04370024967889194,-1.9157905079368187,1.0817301665488932,-0.2663171721164411,-0.34141316380562486,1.5275190665621987,1.3824879820240534,0.6188924102563498
-0.05375053114852734,-0.6980970065749269,-0.43239807152420134,-0.2933621034841078,-1.2696191413985887,0.3723847679433093,-0.254464972854783,0.20041013904668573
0.007668825751599957,0.163183148256896,0.8352281581059255,0.710269576491634,0.7061466660481307,0.4418490841215569,0.8827753217205682,-0.05117426223036854
-0.6694017553873723,0.5323291501647983,-0.8973619425680217,-0.06541101204444069,-1.098679274487865,1.0280469935823053,-0.33009598862888595,0.8280540982741704
1.8084579707242425,0.4344030014616707,-1.6923575142827316,-0.35458626354054984,0.35688928308600987,0.9824524161126527,-1.7307371352819447,0.45976568421760033
-0.9698741733734374,1.328624623686441,-0.8133980668894777,-1.0472771826359304,-0.8447506452940963,-1.3742738265753989,-0.2348271592073411,1.918055231083048
-0.9673674517606724,0.9444550510731344,-0.5497266268671936,0.35585815863665865,3.106349405903437,0.6425356212397061,0.01909142356713899,0.19334254852358673
-0.15255953938489536,-0.1727140406687019,0.47549463361165845,0.6810200820913631,-0.30733725487325997,0.47593501656899484,-1.8047773028160154,0.7678428359288582
-0.4586226504086208,-2.2150575889266766,0.3286914383840386,-0.8702032791936897,-0.10505036302868602,0.4986688110517883,-0.20388132071879325,-0.23269628418638727
2.2085577537420984,2.58112405738114,-0.18446996791984202,-0.43204580871867226,0.2979122770859387,-0.4829112460603886,0.6159649409743087,-0.7975283279685462
0.27549209620748805,-1.1285094025306746,-2.1527701710138225,1.089796625199692,0.37449734359411674,1.5127341544361654,-0.24438341406649713,1.873054671861524
-1.0133752505256823,0.5755875066698927,0.12110308614766131,1.1832876148090834,1.3311589514720072,-0.20361387758352145,0.4476201631504283,-1.4258021525854863
0.1327555362060018,-0.9133570409399163,1.2469449291984995,-0.40359187928298357,1.7907376578864203,0.5225221398752815,0.7537646985799867,1.0302478829460333
-1.7039616611317803,0.42272685410761507,0.05929892930886692,-1.6881833949276508,-0.8576058264325435,-0.0007431395111890969,-0.5992594883441895,0.6105775353736705
0.7583118416735912,-0.737209552135084,-0.3135758581374164,1.5374338511190742,-0.594657183712295,1.2073440834449483,-1.0446450415455564,0.24426590556025063
0.7473263176600495,-0.4973690692074693,-0.42324912876715487,-1.3155225071280028,1.8953317052756986,1.6323081861938766,-0.17691617041853605,0.8881062474166604
2.3911500816834153,-1.4181424172967507,-1.0672631686898426,-1.0578870402022542,0.5320342962787693,-0.2910468191882434,0.6075228092829382,-0.49992343467634176
0.6315466704479259,1.6165524952902302,-1.072320518027827,0.36741907686451863,-0.5133035650737067,-0.5227674398144404,-0.2889332885284122,0.47511038799994315
0.22500592711874984,0.6427251560949288,-0.4444349452570867,-0.9341983774455481,-0.5109014401254794,-0.5222482012223721,0.523199877952799,0.3919252312937117
0.7161920808861146,-0.3128999416275839,0.9279386380681464,1.0863002433428406,0.040481737399976764,1.8490099624774938,-0.2527986626920361,1.676843687036816
0.5613063794212585,-2.9094596506776482,-0.011841554217342442,1.1566263952039884,-0.10342524560758855,0.08170631931247274,0.9589781060806394,0.5887202921947418
1.786665884165043,-0.5085719051480044,-1.3229072519047442,1.3319389859512831,-0.4088805665660635,0.15938113650431998,0.2912151903814699,0.096574977880892
-0.7611125274000738,-0.2548499526535921,0.2992525728171987,-0.4276385252502966,-0.5562494274126109,0.6609716227678771,-0.5850908894556061,0.037915197389312684
-1.414216204090621,-0.577245528888138,-2.5408481470249242,0.20318908196544105,0.9058608273754102,1.2436445749578247,-1.1417934485127115,0.5265614663472102
0.17739492863138956,-2.137944512083655,-0.4487314287060836,-1.0935749515505822,-0.35292438262240644,-0.8355122014673921,-0.3958362184016018,0.20759427992377988
-1.186841095356779,-0.20332103407143653,-0.28004322628210004,-1.0159308616058647,1.0827135250879194,1.9370741037139274,-0.06723305517299988,0.348744741586456
1.3971189631489762,0.7769410709263991,-0.5137349240131991,-0.6858916756438733,-1.4128203997099948,0.7203189953660932,1.0298807040729834,-1.2223460010191387
0.31136292154381734,1.8172229178907235,-0.6217802392715288,0.08022832627320434,-0.6263630469197977,-0.4727550808918541,-2.0287308806801194,0.39619150524365954
1.0897873238302047,1.3204924051560751,-0.5359009425009229,-1.2948451293909924,-0.5724714951350667,-0.7730664803051985,-1.0938959959473857,0.5562061693990634
0.28561311092022273,1.3653912124509515,-0.7518711402035719,-0.496282612368289,0.3597562576804389,0.528810777299436,0.17312998981629543,0.2381417748485854
-1.3845355636731727,-0.18874919895165249,0.1700671929696096,0.270763454316256,0.36010219057627024,0.36678850739655916,-0.2371493511437049,0.9590914319889456
-0.6924169175450189,-0.014124496140327106,-0.7945253998575738,-0.3823732935132741,-1.346090260662492,2.233634187082385,0.5044933509182157,0.7740338985080021
-1.0122728226866926,-0.8317349602162456,0.07746631129547675,-0.3454742175784805,-0.42832550639952144,0.2675092033215496,0.24602153176207783,-1.1726589543627737
0.15911627064714784,-0.3834258046798472,-1.391429542521831,0.44974228758679585,0.09974178594776743,0.37599506175810105,0.5605973311285505,0.24607555471035167
0.7715073979755246,0.028702443238904158,-1.2758309531516103,0.3725027290336631,-0.031809891563663546,0.2895216666856928,-0.949521047430373,-0.026729772912032334
0.5022873600202807,0.9806163775253544,0.7889224846146403,-0.10749634193495473,0.8704031108924392,0.7726686297722749,0.4981561368607253,1.6663049040415228
0.1907106904738017,0.6740279656216365,-0.523250278991915,-0.8835700690396308,0.23376814874109225,1.0615971086432314,1.369202480870858,0.31122740043655195
0.6930117032425334,-0.9721483068143879,-1.2652795996125192,-0.6630354381675524,0.44635805788890065,-1.8226920643577942,-1.2146445387917542,0.6839630068812798
0.4175090581458951,0.4392092417247757,0.2076357602313219,-0.18945165467105213,0.17442072275530912,0.45617679328398725,-0.5143157328509959,0.6102017162873691
-1.186232232074329,-2.461064979493984,1.2076450581991425,-0.685772188585375,-0.06619426059362521,0.6680584418237145,-1.4823737539714776,0.1997778482019965
0.49312335229463083,-0.5996792188016759,-0.23857739862843938,-0.09599165265667522,0.8955577224743971,-1.407539521751353,-0.7326674496536957,1.4449977220722576
-0.3528085169145695,-0.4215192695738617,-1.3160150314193197,0.6927826048723006,-0.898868671652224,0.25204118655741586,0.44961100583690755,0.7933557015260118
0.6125343424138722,-1.0099949333544185,-1.1642389083503841,-1.4310577158166955,0.8051601568197742,1.2301005579826185,-0.3994536978032415,-1.191894172983922
-1.31849686574134,1.1179325597941212,1.4134424485146095,0.3286924311413771,1.5812546943118169,0.5461864517182736,0.4550674428650581,0.620934444292785
0.1761864887422955,0.5454332685108372,1.0062254840660902,1.4250828738997803,0.3255035281273417,0.7991850352673632,-1.1480996673023172,1.666109200660891
-1.8037254573658317,0.2366305249233918,-0.15868274374719055,2.5778168775809345,-0.42160256568851284,-0.6705873434287408,0.7969035115893978,0.9601230193670338
2.382402781455649,1.1298502603711917,0.7621213224280446,1.4125932151982652,0.6396813437585612,0.9698704385452976,-0.1360072963153776,0.530672591354053
-0.10620955511489748,0.045849370054929006,-0.7425679632691048,-1.2339502014845711,0.09292667130350184,1.0894974200863166,0.7752663005896743,-0.6026366244760059
-0.5682167082788361,-0.1025052808762283,-0.5735286909945313,-0.360629716839165,0.40012408313685666,0.9242846848775884,-0.09965194126096891,-1.0835818960863433
0.43137957974426216,-0.3073804215557992,-0.46273327458959573,-0.0020764214417326515,-1.1596958938785462,-0.5190685517004301,-0.49622707681939704,0.18582502543053012
0.025476679233004194,-1.9048481851614525,-0.16707282166743131,-0.2963655832774364,0.15586462230020068,-0.9193594891231418,-0.5036103034371735,-0.7594984296897915
0.21851400680579622,0.5749789933967052,0.4722989804355456,0.21777930391953013,0.07305533173999877,0.018771099019394444,-1.0757271765275522,-0.8052504394086979
0.016003614221569182,-0.2536832928901386,0.04594806166957612,-0.003929417106520271,-0.6750843128005966,-0.3090159642412019,0.9348622155989833,1.1291474198281746
1.2464112154961746,-0.569602933182985,0.5059161080194257,-0.08894168709961688,-1.935416687920923,0.10712062928908446,-0.8086226526561183,0.7613907504856972
-1.5019744010314744,-1.9105089115971137,0.9765965138953296,1.884082035061228,1.4958146540068877,1.5579078590477091,0.8241640800986266,1.251108497995194
1.5789635251969383,0.38067943897895307,-0.02639446925723504,-1.4886263293002486,0.3523122226739797,0.45560191699673896,-1.8582634020145938,0.3369747989046042
0.10610439709162749,-0.21222429315872748,0.5509602228360643,-1.2179009481322223,1.6299778297619696,0.1034352211063223,-0.5733157827065958,1.4043207490287781
0.869377275560908,0.1501388872096412,0.4227559489825116,-0.9697212307984715,-0.13273863939734395,-2.133494576766708,0.7494113592273411,0.10182859757859723
-0.6710255874492499,-1.8433559512882183,1.6317894634276373,0.5862388837171107,-0.20253053772728646,-0.10910874460680388,0.44393768775362297,-0.13939384769746047
0.9041756407536762,0.18187914285594226,0.8322596733935463,0.818795081953415,-0.5767249849893699,-0.45507559097927286,-1.073099529391135,0.06612868418699731
-0.9667518460150062,1.9768610226088092,0.4707504233387776,-0.7672650202945247,-0.6978197788505637,-1.3819861056451677,-0.476628799039369,-1.5635686780385367
-0.4257479217936161,0.20362949940528574,0.2111360083742301,-2.7347719052249273,-0.5423277993315945,0.5422910199855583,-0.2886111209741302,-0.24494468743108783
0.6349547074095336,-1.4010967703893147,-0.6300255740323654,0.33840763387143713,0.1647768802887492,0.21777971442053454,0.06907627522333357,-0.44245914133825
0.4770309542298819,-0.31223958779154404,-0.36462197835109195,1.3611665416618817,-0.4360090786570571,0.11595585898952798,-0.2819178048079803,0.2910318132755656
-0.78602618969749,0.6684810581133409,0.42254903886102185,0.6655390005589071,1.9450611015965193,2.1057109598935613,0.7848373423504313,0.3887522214168274
0.1004020694623034,-1.1431634447708645,0.15260260224357414,0.5643972219650956,1.2243440274491177,-9.70674529524323e-05,-0.8565397347442159,-1.5309693904199086
1.1920797276244401,0.048768523415709364,0.8688370451524013,0.31732155902267034,-0.2545158898881616,-0.36339071064059564,-0.05499053455057282,2.388375005117623
-1.1715681706474754,-0.328087966748928,0.5256760670639298,0.25780439381830683,1.5315817162164125,1.2276117346828812,-0.344890124864201,0.5591391733629721
1.2364317492724115,-0.5044570059742451,-0.7256214723428583,1.1674902901177489,0.6746499459924281,-0.6098288588235498,-1.3853748820789822,-1.9791443521912728
-0.5593516418040976,-0.39111041772707217,-0.3688011648658192,-0.15755565257658455,0.9935971003320339,-0.6847855787501502,-1.1014083907450758,0.08951373389754655
0.4288198762941182,0.622860725829811,1.0262520665705726,-0.9907884126684078,0.4198795433714079,0.5259887102823383,1.0375223583366653,-0.8409240611139008
0.2893127218201939,0.18727867924986,-0.22783009392595938,1.3526272412852898,1.1066227931261365,-1.5449327358398428,0.4314735940044996,0.010305229733648235
-0.349780753647995,-0.8730535469367428,-0.05904593660369023,0.9005807312569051,-1.3893155137301616,-0.3040167389649806,0.759496399457565,0.3035829235864672
1.0616747496992818,-0.35825661679761395,0.8130432398111165,-1.3005955879246551,-2.7616569816622762,-0.2266890959271208,-0.6719516616165483,-0.2136009089322987
1.1611213819752888,0.6584194396881031,1.0772333080234568,-1.6130690522658278,-0.28009093587769934,-0.31719139851215106,-0.06125403917459769,0.7062270947663681
-2.047396063722375,-0.5826754156305154,1.2701128709020815,0.3558042249873591,-2.0851263847293597,1.0472676844877569,-0.9781896795525321,-0.9321238652419461
1.6082337219361011,-0.36730610218080645,1.605093483284351,-0.03119776539474109,0.08170975788294049,0.2045304383519993,1.7050632567414192,0.6618547542665733
-1.0781926064083054,1.5008646325184283,-0.26631921824962385,-1.906040667797765,-0.003708835170092745,0.21439338003719363,-1.140896177536918,-0.7747344909118472
0.42891475619036024,-2.7497272131391646,0.18330858352613064,-0.8225062050743769,0.6503814250193172,-1.3834574711745027,0.11697086417254256,-1.5152711006978392
-1.141947636563063,-0.1201837779725011,-0.8005021754171578,2.129817379979031,-1.7175530172393518,-1.2087885603127757,-0.42618174201793924,0.37522926521661826
0.9453924995516352,-2.3854806703569613,0.6815727996796684,-1.675672176405268,-0.6041630046220278,-0.20824178188692832,-0.7456778555557828,-1.215581072053458
-0.7416960233893174,-0.8959425357109618,-0.1482089584946777,-0.010603850351058527,-0.702991231707164,-0.2760944915859826,0.35471461512822505,-0.4844936360934615
-1.550780476663168,2.732692159006328,-0.8455826548859985,-0.6400984923878792,0.35309693863938957,0.7556479842243368,2.214874083784137,2.0002967711270823
-2.049210179205557,0.44582761427301504,-1.0628620749015851,-0.47282408895423306,-0.787096718238893,0.27590996270062196,-1.3059679456712194,0.5944539857223405
-0.5257442652995267,-0.2648402590737049,1.124557981305251,1.441663973561421,-0.5857166844114653,-0.4835495345257529,1.7196089019130831,-0.6781387917414501
-0.08261849131842242,0.7206245683359871,-0.891686578106733,1.816792184613359,2.4643260344835647,2.367155237979937,-1.1855337752969428,-0.17396812340011053
-0.04330910821788535,0.5385283313903824,2.0563804617593293,0.48154924545626243,0.7444716085494169,-0.4543151049250581,0.10256128172875931,0.6249027074377091
0.4344309764681405,-0.05266087535895423,-0.4349735586096298,1.1662488047707873,-1.8059164944880859,0.8456558868018346,-0.9028386719294151,-0.3901048967648866
1.2660039358075212,0.050566533321851556,-0.5790889631427272,-0.21673288268455873,-1.0369955831485695,-1.4870009698250934,0.19551959385628104,-0.6361102763348382
-0.6432793756829138,-1.40839684247908,0.27277978597652053,0.7180723398564419,-1.12783703714165,-0.5251805018693824,0.9586846275086491,-0.7408144729663315
1.8578660611867905,0.625110075378073,-0.040117056884344145,-2.1920537217265386,0.4665216704241618,-0.02180534562697592,-2.179762104144531,-0.32231171681282683
0.05879294820817381,1.46036092154927,-0.9310163264417836,0.05944057144864889,0.45872717385562994,-0.8421735390211602,2.1724200367399753,-0.0574564313990084
0.8446537021325058,0.09854011337449695,0.22129931426911711,0.8772668846081351,0.10301253542132481,-1.017373145500155,0.21601654174290022,1.2050702219094056
0.4730828161191684,1.0795225401744457,0.4707964167041277,1.604733717046215,-2.8305850149410134,-2.266676128714947,-2.281123886079075,0.24983540835166754
-0.23730254626317726,-0.19222743754160765,-0.034463751562646625,0.019121117463667004,-0.32941784941590474,-0.48886932301438707,0.05375751287085035,1.0161371421797794
-0.6020181144137633,-2.217767392266646,-0.35758127469801354,-0.6121495080203659,-0.2303238404729005,-0.021288189036813482,-0.5232952638942215,-0.7784337456549538
-0.21159014079222033,0.7313931694418829,0.20761660466813275,-0.29003731517809056,1.2505969102849086,0.3531626940774692,0.38105914051132805,0.0796641199609283
1.5947315587803674,-1.2344638159968733,1.9547350777315582,-0.9207200833072695,0.2405365806879053,0.5868705525710667,0.7390400442265568,-0.3454827209415295
0.23281016959484116,-0.5110687272482913,-0.5214279597657846,0.5762528323645022,-0.039792639463404694,0.09012076074480074,-0.07837698734436738,0.27661372747958923
-0.7577611136561603,0.47565888658759364,-0.8351067400650324,0.31003770863207114,-0.7856709272601541,-0.07581788423949092,-0.1293323240471503,0.4756028950327514
1.126775525702963,-0.5601910197760749,0.05763992435408657,-2.0203042680147463,0.1796260657367937,0.5321186585668062,-1.6158860987554846,1.2689057476755925
0.448800397542683,0.5439432224432169,-1.5194438230240173,1.6486644199520863,1.9194832987477457,0.6769679817971676,1.2276350626799961,1.9422605556371781
-0.2630289062937629,-0.5233316466983695,-0.3694145104963876,-1.2367399289337604,1.596671645152157,-0.7836882339212046,0.20817320682009152,0.7748864567145645
0.5768985895747043,0.23553516940268865,0.20770251126180556,-2.2291121057837375,-1.8288670899256674,-0.5039710648765651,0.3134982915174915,-0.7113144591425813
-1.859954558150266,0.19024196166760607,0.16001324013688564,0.4279677538128125,-1.1323051471414027,-0.029639876639652913,1.0792993446849644,1.3845980929943789
0.5537005901478218,0.055237070542160475,-1.2721513721865827,-0.6747547202197833,0.5407925849579455,2.0243221702934497,0.5728330134507932,0.9223122462862251
0.6231478012722254,-0.24632679321453307,-0.8744109232658303,1.338596410101614,-0.11749700382464315,0.9511246890478072,-0.028862689094151846,-0.004982999146614781
-2.4012049005524085,-0.7739365708468813,0.2464279579473971,1.8141673869948236,-0.377529999923212,0.07345641627507354,-0.17786513205818968,-1.5278615669752742
-0.22223257283971715,-2.01394645130205,-0.2508756615248175,-0.8018108041549291,0.6602145208229102,-1.576694974259168,0.5601139595260645,0.999387132116038
-0.7445516518367568,-0.39226322512511536,-0.019702845200168503,1.1039101075693196,0.7488674135714637,1.0952098337052674,-0.25195173384909064,-0.9984852885120742
-0.716534033986347,-2.437005153867833,1.7438793877905532,0.0055196289332183224,1.0291571734343452,2.6878825711742262,0.7014582578857353,1.2369669334216964
-0.5792461956260558,0.7515428253107712,-0.9299960828483805,-0.23514435325294825,1.1218774347653406,1.5863106001030725,-0.4601995331659773,0.20732968212096584
-1.750471395699376,-0.9540679022080681,0.884234985973664,1.7442114421184471,1.3116678191262092,0.6314215762058415,-0.2000531177619666,-1.015662173279827
0.7657638971923555,0.18969364512940878,-0.5058937746488682,0.8910208291589753,0.9948486412239438,0.38381508454611324,1.1814888438467879,-1.3925154897333565
-0.658143062952473,-1.45775571332146,-0.2801229198887668,-0.25997551538319197,-0.3831288840453264,1.417178150765102,-0.6706517661917903,-0.42311462398769345
1.59965598776902,0.13786650795927935,-1.774311321476584,-0.10828926910023318,0.09770011879174897,0.6467456867785268,-1.2183128472629559,-1.4252494779627924
0.5218680260058504,0.8981586742023145,-0.6254382021541374,0.5292756690567395,0.37759812642121543,-1.8343318796457433,-0.7482582349632823,-0.17416834271419984
1.0548898439066658,0.6064313922033561,0.2794966094511541,-0.45830799368336395,-0.7737226420723636,1.0010921791146692,-0.6182582618285031,1.4993309174639022
-1.3922747813397767,-1.5891827622095054,0.23120366638192988,1.2937534872749963,0.5173750685740472,-0.34614086867298055,2.233869242254357,-0.7958606978269016
-0.9511754493980904,-0.8318045083290971,1.7545660927051665,0.6352218506387542,-0.11578327879740333,0.21900536025088443,-0.4700452455487651,-1.096357308668148
0.4499808919416921,0.2601017829559907,-0.6171010219154895,0.40996281923831474,1.084216622284411,-1.0395858678441345,-0.4752670767061365,0.1205039171966613
-0.25567090067757264,1.5369507316648485,0.29785679663313247,2.121063901744225,-0.35961292203542516,-0.6136630969439971,-0.47316769783515694,1.9610014971542498
-0.3876591446129803,0.7700715025365725,0.9021000309930876,-2.028723013177793,-0.3151953451536857,-1.8396133883976857,-0.09423798887927755,-1.2132239936834783
-0.07631622766512593,-0.754753905490307,-0.39903137092202856,-0.4086682142210561,0.2540642433853494,-1.134532408102888,-0.2930026767027205,0.02982516774943752
-0.5391155626102088,0.5172487854453992,-0.604728689910888,1.3315408155768826,-0.8327895477528573,0.041807399921559255,0.817969732568753,0.2750770464534893
-1.4974157089421556,1.2679480530602267,-0.2329714372319639,0.692897387255612,0.3433757897851993,1.4832731539987016,0.5150913611023313,-0.09193291109127365
-0.08328552948051807,0.6382919094667409,-1.4561804733045973,0.44643334981191496,0.36199813495061695,-0.16858546549101389,-1.001393139904714,0.36481438616545375
-1.2145494497444373,0.7577449032958614,-0.33015829027126103,-1.5192004486558655,-0.5916335771726177,0.37372269043985795,2.0982583539113624,0.08858252380651292
-0.31635605313047066,-0.8904424837688718,-0.1123563990869802,-0.6196708701805714,0.2133867554817934,-2.4150328912922583,-0.6673035452481055,-0.32761114887689397
0.14027611474586613,0.8759110566233639,-0.5829234071940004,-1.9928892808963496,2.2468372177374905,0.4985805876399134,0.7741484194321677,0.7916594827285219
-0.588544071925351,0.29403294614576253,0.7893599539326982,0.5421707162802838,-0.9798221155331904,1.4757513761210885,0.26420028039155263,1.5049548918562705
-0.13628350039047057,-0.5634714878490935,0.1812216646443099,0.8587206558372376,-1.0114251853194884,-0.24118557603947882,-0.6789763318376136,0.35185787022934495
-1.2296095153371716,1.2317123314206972,-0.06480119791131965,-0.3427520702550887,0.14671085783891555,0.40822727719540397,-1.426184143864538,-0.8711330092275743
-0.7249426104798365,1.0242436142179845,-0.19097883706374094,-0.5710049553656705,-0.7504732619367789,-0.7972978194489423,0.12527335554830024,0.5142553081402104
1.1657339092567631,-0.5137025172442734,0.4929033868614533,0.28598970444718375,-1.7762230196935611,-0.8218106171943648,-0.10422081426997257,-0.9163065645149593
2.5569545304332353,-0.016021880386421043,-0.7204177125649107,-1.130153975924875,0.4698792488282259,-0.145152785050925,-1.3676736294504848,0.3249843436724761
0.3517806548400974,-2.1667727813037487,-1.7315421024175253,-1.2751506048234809,0.2339791180774994,-0.4599548422078639,0.8189155295723212,0.2333327931775405
0.07006166806913473,0.5082252857682266,1.6596470204410472,0.7219098675152573,0.1524691768345833,-0.21464753007622742,0.08725063402633694,-1.1570432533220927
0.540913013071688,1.0936507947144547,-0.5560011664624471,1.0732999990077303,-0.0815050505875568,0.002467039868673001,0.522251441459266,1.2814883779060904
-0.2145194943796245,-1.8808610287349712,0.6682974593164692,1.1514520578078224,0.2239074514748533,0.7046392749918152,-1.2244366952761765,-0.6632360579719675
0.7572706107445578,-0.38340149886538355,0.7942864811765753,-0.6917302390554255,-0.4961534262541056,0.17751777610081645,0.558014661271932,0.9875205889380089
-0.018758473575008528,-1.6372497895953977,0.565722690395173,1.2991043287860342,-0.4598005507457556,1.627362669264751,0.5805056308648489,0.468072444757335
0.14877864024941082,0.7413281764579871,-1.597278006096959,-0.7142793383200947,-1.3655084264548332,1.0777601887764001,-0.4468454691369304,-1.3581395313178022
-0.6255132565784364,0.1876983226034984,0.60716047268315,-0.5081366951233078,0.929933963763851,-0.9472822106675669,-0.6157883229011615,-0.9501831980575277
1.2545645731428883,0.36568743023190703,0.09651174312155487,0.7171796320640514,-0.01838310283671839,-1.0281532117243861,-2.385544683514145,-1.0152541800405177
0.11086917759602073,-1.1106845277044484,0.6470756074706261,1.7972565797539408,-0.42616001835793943,0.9390377163710613,-0.030239785048731867,1.7252180217685509
0.035879787400631864,-0.6752900483657471,1.153435084586414,0.2581206869095001,-1.0411787020034962,1.6728385346014238,-0.4619469425316876,1.4425556003156101
-1.7238186933142745,0.6299432882585106,-0.01733735164920181,-0.0033209370341711706,-1.5162643328390428,0.5029500753750024,0.1945009486592679,-0.6111488280474703
0.19681047242511068,-2.3691732952908864,-1.4383709261902884,-0.3671121711676595,1.6665290261520789,-0.8204346070865519,-0.043465953767423744,-0.48822151560041904
-0.9092906748155152,0.7396447028827463,-1.1559285931932972,0.5293976772196958,-0.967034812125352,1.3992083902088719,1.4087617411468094,-1.6689615551524108
0.17245199041568735,-1.3656982589224533,-0.35040392988965413,0.38971028844323585,0.7760481231050381,-1.014093155876242,0.39488631945809133,-1.6671514617626373
0.45286709813159,-0.73725052898864,-0.3799113306679047,0.47475366863069324,0.7689320169916912,-2.100577968571782,0.5617616881522228,-0.05927415831624967
-3.013639816592211,-1.030668613725388,-0.6744486980388972,-0.44441302571027613,-0.0835137434465667,-0.6205001987885411,1.0518332501096024,1.455377253417284
-2.328045227755379,-1.995239869726677,0.13624074565180563,-1.5659909932240816,0.5009141678978379,2.1122097649365257,0.3234617563288171,-2.27450325584954
-0.9525549401075967,0.5473882250948188,-2.6198581728757584,-0.4448463134057539,0.03886865588446225,0.07671704009417074,1.069095947130289,0.658294016989924
-1.0341959323729761,-0.36508908954327873,0.266213779083469,-1.554027273145915,1.5610052128533507,0.46787905471866037,1.1805660652056509,1.0502597375635667
1.4079834344846158,-2.2494987751070568,2.130841983207011,1.781517918408357,-2.332999006925599,1.3116191607476728,0.04104404514979074,-0.2085883635360006
-0.06229227833525665,1.1924862369012441,0.7917392351602202,-0.5923340683999835,-2.810007517168381,1.556518361364007,-0.11269150366755784,-0.47095456206908676
0.36629180681947576,0.1531373820745589,0.438819160576715,1.266670559365233,-1.2227179239793566,-0.20839610362404834,-0.7965329190449773,0.02507906025325877
0.8075697673645695,1.802560000500792,0.1241354115045265,2.0306729889157973,0.31454857791991664,0.1020782828174903,1.5020170532635246,0.2878704644490354
2.458570533499647,-1.7904062733883799,1.3917080188754756,0.8242428013106888,0.08780011514341945,-0.7691922531906626,0.737155210575941,-0.2974087055699614
1.0081756551566352,2.378853308758362,0.8597093186968083,-1.2200443334594162,-1.0960291653632785,-0.6951723370221137,-0.49995133755945037,-0.542233823833241
-0.41408985004394205,0.23430993889144,-0.2759162474212654,0.5225156394306333,-0.9617971305445681,-0.6602993073941791,-0.4164397757888605,-1.0582319057965446
0.3755640556201147,0.005160245047309283,0.077246267238986,-0.1018176663152093,-0.3402055189101413,-1.2371690216472033,0.09495736002275247,0.6785744813188863
0.14919254031363308,0.025595050938497347,-0.10039931070618069,1.0111983155241513,1.653604496916477,0.9065376005859632,-0.03345110808438073,1.6492368849586925
1.3022514481526197,2.6145014002428923,0.29725160036641535,-0.038956548003338476,0.18169293119955582,-1.1635187607365434,-0.9829701113825677,0.26492246556761295
-2.1340948411677623,0.28535280100056437,-1.1429973300273522,-0.986199798958454,-1.2293179631404776,0.015339861643950698,-1.4391113202188432,-0.5745172825098305
-1.1765839273092022,0.35953751057197575,-0.2597889920212103,0.5806221055317163,0.05615477178320009,0.8508525071557838,1.1400371519094465,-0.6249733870515493
-0.30116850204753604,-1.1142124890825356,0.40095964488737723,0.9147412827585448,1.70186512091995,-0.026250658971531903,0.49979293748208997,0.14315263674080184
-0.24139767944958967,-0.23174101038462147,1.5052226534017181,0.6390637616837924,-0.7491968465106387,0.06908692579321477,-1.6304609521538662,1.433191146648811
-2.3169052859196055,-1.8295561401776967,0.1440855145692482,0.5065452711285878,0.6952026594083491,-0.7398820284033021,0.2991197619734586,-0.06111952053523302
0.33070419626031966,1.2152805121683494,0.10099352276960867,-0.552000808489725,2.7243131927758375,-0.8597054537597112,-0.39641269503572235,-1.1947903004157232
-0.21340345891981638,-0.7607368205020336,1.204586704302846,-0.4787333714903615,2.146426825350081,0.2785042328478535,-1.0694154663390054,0.887526864028394
0.6512159256298165,-2.341274990159396,0.06452962634080944,1.3950994810979465,1.1305731619420631,-0.30751574274859045,0.34386829437589284,0.07600537268612736
-0.20218396879137887,-0.7303806339088433,-0.21841964152889398,0.08255866818553555,-0.5938419127461421,-0.8829903698034611,0.771782052517964,-1.0101781358212296
-0.04469608148375774,-1.0759943389754245,0.4290800782465257,-0.26533086321343113,-0.5111372191156637,0.23117111645614932,-2.939818010409479,0.10084830840791657
1.380733125790677,-0.012198147245812523,-0.7555505504161713,2.1085629607874052,-2.053548687811747,-0.12449536069687746,0.28609270205898585,-0.06543590470613427
1.3967193260942041,1.6067949435031694,-1.4121978971764628,1.3146116543427326,0.32992318875133486,-0.11431162950334885,2.2864031728863803,-1.2631687802455873
0.6678630452600884,-0.07389762527784853,0.689339975789134,-0.8337739296870984,-2.5893607105925733,0.6054653510547763,0.337980802368813,0.013685887750006611
-0.12956078749908218,1.0270929356579488,1.3186385319989402,-0.07759787399534257,0.1032595666785425,-0.136357685245546,-0.255132480737999,0.9101707639624637
0.25241482002011006,-0.7713873273609319,0.5788247609713115,1.4172326828355706,-0.4829865938167516,1.0376178608158177,-1.1268727984057056,0.8345520415478553
-0.3487742426900342,0.5499689825080885,-0.8150963685148043,-0.972541717511728,-0.004882362936382459,-1.2620762145988307,0.08923347800254315,-1.578389587977977
1.3330157422212758,-0.121092390054344,-0.30249240858722504,-0.08374114232645857,0.7967446489386348,-0.059807895945216384,0.9739707694191094,-2.6772373578314204
1.603330024047092,0.21721260082462343,0.30039050797334815,0.36739522222385207,-0.5987709003206895,-0.45600476260221473,1.0533913610804913,-0.16001966344368262
-0.21331000620581125,-1.5939409843435144,0.214463147991412,1.1905968831559448,2.0989524945007543,1.377847463298379,0.6659355016964866,-1.1833590265524223
-1.07128481756936,-2.2545828389433424,-0.054571605197916775,0.523712120798774,1.1550222725323107,0.9241824448187252,-0.17856649973745511,0.5782822265964213
-0.41010260059821835,1.7075422267446458,-0.9457411787940374,1.306178467548304,-0.38488528478416456,-0.6281192676996858,-0.6262907268800956,0.36372664080083333
1.0500721913101254,0.22186623003666445,1.4103669985348724,1.4935661704849248,1.6945484927874874,0.7036334381391633,-0.600981770829164,0.5950759143347296
0.8413894174457038,-0.4766441207944564,1.4593060704152638,-1.0493830340478387,-0.22331907210127486,0.16956685082540665,-0.01709864314570539,0.532196639697181
0.7381337261817827,1.9478641847008151,-0.613430361871629,-0.45666918547627794,0.5364405009064733,-1.145524403638753,-2.1019847054573826,-0.9636091106544983
0.2865469911344296,0.003948479620245059,0.35269977427323385,0.4507706980113178,-1.1034887955920165,0.09304193165960804,-0.02465998024027017,-1.8511404123984894
-0.7263042109694186,0.3700679907843445,0.21158555284858424,-0.22690252694967578,-1.0391431049968605,-1.1837904315594492,-0.3146271434672976,-2.781173546442337
-0.6917045220696855,-1.1082991780521352,1.4526793716155069,-0.535916840646327,-1.4812465094042016,0.2157543279386729,-1.1121352725995854,-0.2238935236744106
0.5821025045399768,-1.5314032393744208,1.4531733943387837,-0.5893339465778812,-0.7429341969665796,-1.2272760565660006,-0.4239915402916568,-0.5625811760931593
0.4929487705202253,1.8742121477916922,-0.8897235117667427,1.4909481353833356,1.433078124338967,-0.6359849146679026,1.6272615829866113,1.6414465392158897
0.7504944681911179,-0.31051271695875166,0.3016038005271418,0.5629256315293695,1.3245643887649523,0.3379367830887766,-0.05688725439742329,1.377214564336993
-1.95681904028905,-0.9517996709860754,-0.05177200170600371,0.5054664952981656,-0.5032606510700722,0.547415042321216,-2.116037014315637,0.3977627314868116
-0.35508672902382066,0.6813244883459085,1.025808657379678,-0.7576855911332377,-2.191483291615852,0.9837629774700276,1.1974598227006035,0.6855248409421736
-0.6026222524756397,-0.07525012113471989,-0.23284693275226398,-2.4623631965617556,-0.6298227586808076,-2.1973705176095204,-0.5783792801153891,-1.0647662902018287
-0.2733043627982483,1.5594122685310638,-2.932058163264455,-0.03541546144783371,0.10062561694076386,0.987516658648637,0.23163634350563003,0.6482499704490784
0.9411916961900004,0.553049382726029,-0.3211072984218392,-1.8079407867100472,1.6074185833871435,-0.8067558534090128,-0.43415115588265135,-0.3187410173189147
0.7428997316720991,-0.6555753470683914,1.3033729713930895,-0.4947144901617484,0.2871712767653595,-1.214371309983147,0.41444233585864493,-0.47930702154345767
2.609168318951963,1.9414921561457081,0.6642514098656821,-0.03774013248524396,-0.4444303784283855,-1.485165628249627,1.2470297025282102,0.7652699255220891
-0.13970200835979568,0.07002900890418914,-0.7233334058997872,2.5443411213333964,0.7062363877553136,-1.4388189319929185,1.1423873571920011,0.2999834689588803
-0.02504232076023407,-0.5040071754961619,-1.8121073327581498,1.4889834558099992,0.17316868588385959,-0.685291657202527,1.20439325569741,-0.3187180458872955
0.3884097535779832,1.8191122823552897,0.3476494002472139,0.5762308856895035,-0.250259973543265,-1.0561695506410615,-0.9428170083862067,0.14412622074272616
-0.7642948711038929,0.3223389520262885,0.16020469228197617,0.8397813207081275,-0.03705695799827832,-1.1384285534852514,-1.0546834305705508,-0.7892523771462211
-0.23261617002592253,-1.8806553054166457,-0.24801058433514536,0.23520907921872417,-0.8642572713256411,0.024066475229586347,-0.2844140917420129,-1.264915935549648
-1.2662899967571721,-0.49619525952833177,1.7702093997956145,0.41661185989158195,-0.28013163653029355,-0.1374566827335336,0.7339180042740485,-0.21604742746990158
-0.9307015514674456,-0.6912054999787722,0.39137826991460084,1.236672389323291,0.6532816170457479,-0.530694278747558,-1.6297751392022577,-0.6261358297541181
-0.26410837672564097,0.6167322751533637,0.7859675059249687,-0.42537720398121776,0.9945798054109781,0.1789267488855902,0.6651294761003362,-1.0494221488182653
-1.056674284545513,-0.7697372629500642,0.09881333401851537,1.13571620514453,-0.22023482892787646,1.3725014775269904,-0.04618896820453698,0.18077485804458648
0.710262853738076,-1.2162707349511748,-1.3545594091707256,-0.7968730254723126,-1.5389154668991039,-1.1001538769731236,0.023779868347728175,-0.5576658501614331
-0.8414200477729947,1.8782788470169067,1.9706559958788181,0.38289538505341864,0.7388960755481936,-1.8869977416912058,-0.7950123753370506,0.4261093963011605
-0.22421475365302823,-0.6426815407265717,2.352262384099761,-0.33735712635494786,-0.8946985068526363,0.7413733972420303,0.4170968461777244,1.8498356146594446
-0.3646075678766278,-1.597697882556122,0.19617375332540116,0.18894436144497004,0.3574679583702337,1.15294484167346,0.25546330960210045,1.3107430053931464
-0.895101622092516,0.4878722845087458,-0.5628900340104772,1.082183295730651,-0.7971411349696012,-0.38120778104485925,-0.5173863488604912,0.5531713344064563
-2.4486550559862503,0.2706347445175907,0.09352347069955934,0.43861279926918306,2.2896935351009744,-0.8345373010944843,-0.7988485178082215,1.185281180449718
0.20029452053607064,1.670431470159973,0.16806559594282036,-0.1959702196086857,1.1080178900908202,-1.2450861759284317,-0.20611671703497472,1.7910647124592534
1.899707893290029,-0.09710312108775568,-0.3271401807604257,0.032831939357629944,-0.9968396559430083,-0.9789890191049219,0.3128758822342143,0.5294274917321043
0.25980703822681134,-0.6163125510913294,0.6697781144811638,0.08521183455501531,-0.6870824592531259,-0.9437534969911754,0.5081076995448787,-0.5079055004751126
-0.6733062668387276,-1.4882844832140691,-0.5696987072203259,-0.7332366748843703,0.010919701777834726,0.5079930098692109,0.20472884774531203,-0.7046561202985763
-0.6510440867493874,0.6562973858256873,-2.011491217992775,-1.1996373233717008,0.35562918678746236,0.08718133449789972,-1.2099246779548967,-0.8637322924434612
-0.9288701662283627,0.6362774216648333,-0.10403270112409166,1.1438558591130985,-0.4801215701137741,2.303497849856596,-2.7426305965218014,0.6656315666681368
0.3061447573878294,-1.0770835340516731,-1.2937090501128026,0.3137063213206896,0.1153192226638615,-0.8741817811700497,1.103880953436964,-0.32413821656718683
1.0984191207442915,-0.2671203007429382,0.14339225432421646,1.1212008128952304,-0.2996828329513922,-0.35622428175505655,1.381645799324478,0.7325022700373942
-0.5215212388111815,2.095448135960184,-0.8809010632726789,0.25022897063023697,-1.813077324768175,0.06419621901399611,0.6037999625901462,-0.1729404976722948
-0.05745075102406797,-1.3775101834301426,0.3900442307533064,-0.18923701491834224,1.0999245821820687,0.7252084907554003,-0.9481926388996218,0.3871725413828421
-1.9389445848070872,-0.12631898025868055,-0.5917345232981173,-0.9807526242798039,-0.1586008425611321,-0.9632315754606718,0.3677752130520508,0.691182746758013
-0.09946233752862414,-0.29439346213570494,1.8089235351690365,-0.251958035607831,0.5289829057622647,-0.028513138970506106,-0.9571702536664923,0.3203810301581082
1.500416660110856,2.297271303053978,-1.0153052492196815,-1.0474806408023047,-0.32667657441195574,-1.0786690995015078,0.1591165808077248,0.24820547742590263
-0.16485646531255316,0.31891170888440645,0.8230563985931254,-0.28045991029465916,-1.1427162456453748,0.3775178135230293,-2.0927269679937606,-0.256393220333133
0.7243629219538089,-1.138021206077746,0.2845666748924209,-0.810264690926713,0.4968537836135384,-0.796283488915809,-1.7785199571672756,2.74023999889367
0.36992068606000367,0.027506444060038104,1.2262048231284317,0.14021893833054652,-1.006894466485884,0.8382081520436009,-0.10256768234757667,-1.2667772164781412
-1.513162097096012,-0.819230066016383,-0.47429638752216924,1.947577146133589,-0.5512758320530372,-0.5001997440636788,2.343809286786442,0.9868080296370264
-0.024583327852264324,1.444959212707255,0.5028795977648044,0.984975469425056,0.40645539071172165,0.2648073899489959,0.8918532754881138,0.9659997639889596
-0.740354930402449,-1.6537166344503962,1.87827883449519,-0.18578272714565675,0.6390283350049698,0.42927585749685754,-0.3909517194940919,0.44659015815707215
-1.4018686374915068,-0.6943406364897113,0.23173061694191155,0.138487467791661,-1.5387011310841925,-0.14945708795431956,2.6987575944801008,2.55015145083622
-1.1470800165836417,-0.0026727838252233404,0.49920273303244256,-0.35467653076660277,-0.3092545934909848,0.25508629278669465,2.2558913380552243,-0.15894458364508132
1.4683579928719506,0.207419632376252,0.16950120549279624,0.7617371977902047,-0.48706102082917274,0.5858662001259753,-0.90353363398489,-0.10286655737779489
1.1736645993573902,-0.10113174096803616,-0.14260607532179598,0.6555057143438876,-1.055829033895724,0.06966394322816685,-0.6211948983779626,0.9192626134378851
0.40265176427777033,0.05710040746209618,1.129026594782407,-0.28110453681550146,0.4208875467006045,0.7206664250167654,0.0844548240019195,-0.35344632971547774
2.5268961345880756,-0.945521714832748,1.0726108077205485,0.4869502886877869,0.2713505023996029,-2.1265032334491236,-0.3611179615504568,-0.3064076949429795
-1.450619655517403,1.5483235632518546,-0.8265059013618583,0.28570719749789814,0.014496446493539742,-0.40376630309282385,0.9563165354975778,-1.707754400422482
-0.9050118950941993,1.5128804879788036,-1.434960627978903,-1.2156906843300053,-0.020667192956962954,0.49415170097032357,-0.5888853457967417,-1.4294487551561397
-0.583616225729505,-0.30659689118588024,0.647632409368872,-0.7360207519769121,0.9811080809504038,-0.02074250067515226,0.3437061330325014,-0.21371808400941145
1.6168457381112997,-0.8799387915929584,1.3976359350373218,-0.35094063178401186,-2.2372597502080778,1.8200249514686742,-1.2796420509533262,0.8445055285369417
0.9143502488821873,0.9100314066463351,2.816146505705359,1.0597538269995246,-0.7711505166747136,-0.09579465057551517,0.43587365162322855,-0.43854860345423113
1.7694961838117282,-0.4791364648550108,-0.86084242490935,-0.43280900492036,1.031575976215186,0.5114826454188329,-0.6477938648834006,0.36724051391324875
-0.4777703652876071,-0.17962376643363875,0.6305839315317187,-1.1749366082222932,0.122287190059817,-0.9441046477752555,-1.468841970410593,0.7262981326422759
-0.740792508384602,0.8523337631928042,-0.03078391438648578,0.05956591569989181,-0.1199917405931868,1.2873040860518448,0.9030980914422683,0.43697509162582615
0.3286414600611423,-0.08593721887432203,1.7417510886245142,0.710406958354532,-0.3527823120315714,-1.4408603801031763,-0.08698354335619636,0.28417052867045284
0.8746556115619992,-0.5934413483203048,1.552049496397503,-1.2620522741666438,0.9696184534837867,-1.4537699828853732,-0.1946501991546792,-1.0174090428321427
-0.8601826876595599,-1.6988771666581766,-0.5360162856356996,0.627145783587352,0.5854104845246442,-0.9256527651446597,-0.12488035726259485,-1.1210389573574662
-0.5505152924464667,0.6898455688162538,0.48999662218446693,-1.8657403442782945,-0.41572593813249625,-2.4457253757123976,0.08565369092413928,-0.0014685896474820562
0.9652124279978471,0.47261373212605257,-1.045829470321198,-1.348125111779348,0.6653474199866204,0.9398393297348338,1.281710204263842,0.29019040290977377
-0.10501749279517124,0.16492667334070604,-1.8955416694537466,-0.7577650067051337,-0.8072319512290121,0.7188383688715088,-0.16329401306897123,1.186521195947142
0.6640155904856399,1.0619250378810197,1.4695440215456148,0.14005880625685016,0.15592228077769185,-0.9326948756343385,0.9764743594913873,-0.5900454381932
-0.08020627893744108,2.522923853952922,0.17760977740444978,-0.17566397194681815,0.27155144173663537,1.3234635557286814,-0.28541829484199216,2.2393902531812486
-1.2867854853695562,1.2126818583393926,-0.09951672891284913,1.5872893832168244,0.6346729974595481,-0.3235604352589686,-0.2964079815684751,-0.7296207820467209
0.1886090642045543,-1.5914312767044039,1.4537177229302176,-0.7945733662886681,-0.12071361654279729,-0.647784725618316,0.6176848049253243,-0.18062123403009575
-0.007453829218047245,0.6275164999126825,-1.9685712369114785,-0.20375991492634213,-1.5971380105542619,-1.287291170535075,-0.6287556190700708,-0.16473884951928527
