-0.09511207141110278,0.23326263215809068,-0.6939847977155023,1.7638076680376442,0.9055089549660892,1.6370430827081515,-1.560440610322499,0.19738090340462347
-0.7095909680148315,0.8245035079394044,0.3235639368334412,-1.251929669136431,-1.7894472301991455,-0.1323101475239869,-0.235623861744491,0.43787867373485867
0.3288059903619386,0.010268896058395318,0.07520022214423314,1.1132124467829423,0.5910044171236211,0.08404413988658459,0.48926317878750425,3.7350467955733624
0.3181689130284325,-0.9783898661668297,0.02471641079257951,0.2529281868303377,-1.0569801730084416,0.3997612337141941,0.12493104473853024,0.778694417485903
0.0801061818933852,-0.8890384725960296,1.6967511075961867,-1.3619978693593522,-0.32943896640257647,-0.40828125739910415,1.267607851589775,-0.8697919148247497
0.7808050642430789,-0.02258953354092313,-1.5450788207469621,0.24024998928970906,-0.6161061002678436,0.8407814857697987,-1.834975402772972,-1.2879696054174872
-0.07384992997750531,-2.7735761428055623,-0.6451178467343323,-0.22160278405744296,-0.3733545578802079,-0.6383820240034382,-0.08555713526316308,2.026223466239326
-0.3742186441620506,-1.0158788698344186,0.7921722519905856,0.5256427123625681,0.2122184074301291,0.8462546721570923,-0.10276831474117266,0.6580797743317788
0.6414361956149582,0.34819667696577383,-2.062540597823698,-0.4908799108358351,-0.6411164072284045,-0.06821253002513787,-1.4191102434905543,0.3777219709487669
1.0151156318531258,-0.49818229076893156,0.09947514698862572,-0.13754208175381946,-1.3766625259013894,1.2245693104381847,-0.79943936769535,0.14303695755682513
-0.531609570447103,-0.8815949189940304,-0.6026247636723543,0.58288975102965,-2.046055613561258,-0.5165861391909093,-1.7666908648177884,0.5775468968706367
0.9125743947196914,2.5535831630773016,-1.408053800045151,-0.6452326113712413,-2.1951488082108006,1.3353364088695285,-1.6076471883267496,0.4865734602853838
1.0567376560064485,-1.830012790855115,1.7159292668258888,1.0700935664787095,-0.5565868091612022,1.3613692393748078,-0.5583592811601336,0.23138909244318476
-0.043308278996342923,-1.2339371087619189,-0.6697165311342131,0.35389070968441694,-1.3635150349914293,-0.34946292476751056,0.46007862172465586,0.3953907184307907
-0.41810772501491716,-0.03572356999691691,-0.20581884754351487,1.6891159836099114,-1.1991783257091222,-1.7322148095354037,-0.5646740882788311,-0.7551191929951616
-1.919450376362709,0.7669349217910469,0.4481658573679377,0.41574390723783333,0.1237710365763745,0.9114278132673739,-1.3853512903865337,-0.4993054151630755
-0.8985345690632058,1.6453449540017047,0.6375139222187141,0.024315855037140757,-0.5435998446611486,-0.8006211787485628,-0.24653543753660226,0.6092680154068161
-0.4120595736360308,-2.1190989367907913,0.1959021150270883,-0.2277035344421799,-0.5741180605319739,1.1149035262434521,-0.36034665858583653,-0.9463330267719909
-0.8516883438730791,-0.7509971280384635,-0.8688326185220561,-1.4767283313340787,0.569608595605275,0.2815176346805423,0.28868780114361625,-0.07120045964358794
-0.1484140960618247,-0.2549297827161846,0.5885857089171003,0.5218665855663689,0.21337497573709172,0.9772810987048101,0.6094282940716732,0.4482667695442168
-0.7506996212891689,0.22026058676318858,1.3239390655236454,-1.4048036596896776,-1.5648191417899457,-0.9152006074927024,1.2622940184447848,1.6938821730264932
-1.3629600267936295,-1.4911952321314297,0.08472225793747397,0.31475037297223807,0.3256888753010635,0.7332095396391316,-0.28426511583959485,0.9093364110982035
0.30496382423487717,0.0030679302673363258,0.2760589412293303,-0.25741655535217145,-0.8999528964857985,-1.8512412001637044,-0.3784979715102163,-0.6191122417636968
-0.36839477071165583,1.3936853373521847,1.0131570475100558,1.7899469410572675,-0.698754891997562,-1.2513982611863186,-0.20300547965292182,-0.15308353258890728
-0.04046063164211701,-1.0275914139956654,0.6108847086427381,1.7129723233661749,0.07980558294393972,0.8307857694129633,2.0012822345120296,-0.2871664176436138
-0.4889486727793871,-0.2717513418438669,0.8296049005873843,-0.42483200704665,0.503464642919564,0.9238553091848928,0.866977674003442,-0.5604427068447979
-1.200798320012002,-0.3321679956265687,1.447134017115652,-0.5457392073749086,-0.963951960213089,-0.1927271944676139,-0.9729260278241718,1.0812587663823316
-1.4431805710623602,-1.511843176868764,0.15572782326894063,1.291812688458419,0.5230310197065555,0.011985686371625993,1.0104107628356789,1.1071744937220114
-0.01654015094624923,0.589453985910287,-0.7868006701283141,-2.306354189137357,-0.23202577310698766,1.122486344024241,-0.12965841839836634,-1.5624290097447378
-0.08859590387749891,0.6252546413044718,-0.6455182105063326,0.8146485152597839,-1.5279103017974331,0.6702554402106476,0.173881266725268,0.2653681099694448
-0.4087862322021342,-0.09372541985939005,0.07528471847721298,-1.401908185994151,-0.3921591080741889,1.6298631567741046,0.22402015001829068,-1.051176485615309
0.048191514455901904,-0.11599868600170805,-1.310528032627872,0.8732915970377348,0.5019220596739115,-1.5118937889359851,-2.8906879041593263,-1.20979575148273
-1.1404517641128384,0.14634508264983953,-1.9541825853656418,0.5863052511176697,0.3615849343152243,0.17006591973538812,-0.8393240979022892,0.038976463421192035
2.248477889972937,-1.1625207074720358,1.4417505884749673,0.8714902533976238,-1.5195285954909359,-0.8866076319187451,0.1795534927510599,-0.8588824462033965
0.6374802195590936,0.3117409054747643,-1.2926769418249444,-1.024358449980313,-0.6328456833887846,-0.9496098643503614,-1.0206195432695515,-1.1439176806385558
-0.8886697745412061,0.8156148739318463,-1.3751430969838423,-0.15632160498181877,0.6289882826994512,0.36057442554385966,-0.5976735663009746,-1.0794836730177235
0.4649183763729349,0.14243984529959605,-0.6146836357306138,0.711938137010528,-1.7229436329248449,0.8069866937397773,-0.6237239423569501,-0.08736262694059377
-0.1694639361661663,0.9891779189619468,-0.9763075045848476,0.2732414012179878,0.999870620296084,1.11175174833441,-1.2776380574538007,1.4147706344149409
-1.6164349311645265,-0.3605310160331987,-0.038965847715628464,0.7327658712168191,0.9151174489208705,0.032049058592074284,1.97800879662777,0.2267618664470722
-0.353556750539019,-0.5430983754582056,0.4426157420792889,1.2085386623543897,0.7401191505407373,-1.7452598795387517,-2.274568145891627,1.810180404721147
-0.593216660874361,-1.2706192590579455,0.1588016453809911,0.17821987288875119,-0.010959886150421325,-0.034668103175228254,0.3857841149215254,-1.0273612162022971
2.0113765470172615,-0.7048221761853556,0.36261093449611986,0.6951538918747412,3.016221528481431,-1.3018335394588996,-1.4113258118319738,1.2109113607482478
-0.6362994029260848,-0.6591610688166518,-0.5122309605804596,1.4173255052750282,-0.4640073328532185,0.3878758726531647,0.33255399773735034,0.9550770268761062
-0.5557496560115334,1.2733000743015206,0.8033770397706406,1.3146096761065547,-0.3534133867725232,0.1276398601312349,0.1983469030367314,-0.7305846451687885
0.1944709687329773,-1.0907117390988195,-0.44755610589372635,1.0604548811767902,-0.11613193176628483,-1.5743651451321121,1.0358926730713482,-0.6145666941982135
-1.152978608110377,-0.8704462868824665,-0.967186559748393,-1.2525843391038027,-1.5868939149387598,-0.5474067630096889,1.0895582980602057,1.3224867711181947
0.06876327993837338,-1.6404138725060733,1.646933741852908,-1.9031138242741328,-0.7619254905631919,-2.470504797162807,1.2805985112711673,0.898125904553196
1.3630170501579213,1.338192365662644,0.05153099812253278,0.6534520181866112,1.3396368794437954,-1.3977919057820158,1.2481977090627532,-1.2741657879452513
-0.9937398449602695,-1.4886872919148542,1.6517637333652118,-2.6647000194755592,2.003861020504194,-0.6134809871532655,0.8658888800779815,0.26407369268576636
-1.819462374730016,-0.521783143998223,-0.9988237719445254,0.104360908226178,-0.40385053834202606,-1.26694929129477,-1.478657236725325,0.08099413417785954
0.011063451659935027,-0.5860912095013168,-1.4797478290992359,0.6508290910103923,-0.36760997228160225,0.920630462356361,0.3801341428034876,-1.3713221735048626
0.42515232868362585,-1.389096586107497,-1.0577254242940932,0.22546963231325404,-0.02222236886554569,-1.446891524134522,0.8876996165694392,-0.04200897011348036
0.8169994301223292,-0.7233604602614625,-0.49638341784844114,-0.13105917695574731,1.1432694566221493,1.6864185945170471,-0.8792583184354075,0.7073067171604933
0.8872022814809036,0.15328452580133123,0.7131490755448064,-1.1840927344109786,1.2378190794915567,0.6708712985871015,1.3484507855624461,1.4983001447887185
-1.969486753837792,-0.019657296279146422,2.913398820230484,1.6685678876458931,0.6276377915252569,1.9885332872619623,-1.8418273008482593,1.1208901094073582
0.16166338031718747,-0.19863927078498464,-0.9349039158208851,-0.31854728553299066,-1.733489721616847,-0.5325095209642765,0.4671392486632382,-0.2429853422318768
-0.19213974006591006,1.5311938827518516,0.00623417285147143,-2.0359401902713627,-0.33153200012462886,-0.5000332821203819,0.3705077562316411,-1.4303083538994497
-0.2061765642513441,-2.9848433853000844,0.16911659827546746,-0.08818394365220095,-1.395109285110509,-0.8382553073413076,1.9221467253166586,-0.7964837499223688
-0.4712450538052774,0.8906641670674126,0.3211931090359655,0.2026176015696151,-0.35372631069967714,-0.5232179521237901,-1.0984984281572776,0.8802041379619723
0.18524371298569914,-0.4050488937536655,-2.2038905635648818,1.2866988524607172,-1.0789082082541854,-0.08310846159324271,-2.3508308742540645,-0.5872471149960506
0.6912204536077344,-0.3005230999978969,0.21234862876842012,1.104685029725035,0.4040254282993817,0.23939269754870704,0.30892495555097055,2.257270118545925
-0.5570053345481404,-0.8791905975967345,-0.7608389830021988,1.1764767683827357,0.7919244525240523,-1.3325869761089992,0.8133062373681893,0.09051854426137558
-0.22809471770964113,0.701018091562561,-0.6511476353048137,1.5260779865138758,-1.6485175522210813,-1.814184069339063,-1.4951159628294979,-0.21811557207305482
-0.5782969357968059,0.17701562076268385,0.12018144550677537,0.09236968483340004,-1.1496007483666624,0.8131272762147937,1.004345655203492,1.317705924060275
0.5256267842297268,-1.1141815286244585,1.0480467625713012,0.37764574869254663,-0.22939007234459116,-0.39728431230694505,1.592132439906081,1.3966382380538553
0.5613125446854867,0.7763316534210813,-0.5362795374905704,0.28382373500487573,-1.5831282441696528,-1.0191200267832672,0.6750515037502127,0.9236450257527427
0.1776499996733265,2.0755517368802927,0.4607816969965188,-0.48861736849835397,0.27888476452055044,-0.626876825713376,-1.5038834989978989,-0.49383026310590666
0.021776576131549298,-1.7248563543948963,0.40649241164942806,1.9574409819127492,0.24180754145206995,0.9902857795529248,-1.7817777811624216,0.5221128243293808
1.6208385554729432,2.0506039923117356,-0.16755485539613793,1.2826000897931642,1.573158326041641,-1.2547100435722005,0.224978503687378,-0.11930896789093227
0.9898656594278613,0.09242408236759485,-0.4392965231065993,0.58650910928296,-0.7431956495384001,1.639763528062842,0.6920207485674534,-0.38593333827012843
1.1980792715263142,-2.2652357752470014,-0.8602810588926642,-2.37066407402046,-0.5679291481828641,2.0112699886990777,0.6641439293633776,0.7099943003126409
0.1925858320762835,0.0328318088784839,-1.177432376646805,0.27072745972009005,0.8990482138285545,-0.9049476215143373,-2.0498209921130255,-0.8334230417648538
0.7433305153585947,0.7075920332467653,-1.2993011694404997,-0.9795493446456033,-0.2859073744784388,0.5542801999950908,0.12714479794248615,-0.9208908463854748
1.9860504281828175,-2.492488348531403,-0.9834646025251297,-0.879464913004187,2.151337469961998,0.7968312359618621,0.32153194428910054,-1.225586326732406
0.10658011864908971,0.7395078854590996,0.11092312054647269,0.26786312089623193,-0.9181506887406092,-0.8593540254388727,-0.371832605511693,-0.14234545633536697
-0.5531009657247455,1.0783312248967103,0.9808168547014983,0.3706089653929494,-1.5225306893732156,-0.2593205813016973,0.6118740558996919,-0.1558719190318227
-1.23193938388666,-1.6019549705963336,1.1267652209300199,0.27055150655731103,-0.38112455385772165,0.09808888730060245,1.1983258890415796,0.06823373566998293
-0.7735645892574581,-1.3376947985175367,-0.7343468676018022,1.4153053010723666,0.015441167812628519,0.12493335944269042,0.9884587757619671,0.025643938344553543
0.8325118722496746,0.07644177710252541,-1.8198254782536167,2.0504677908983497,0.6969863801059903,-0.8654899255018753,-0.8676471154115849,0.16264111867156128
0.5604787644413957,0.8551931161304717,1.1425569244745384,-0.9779590160295312,0.36460414594979584,0.20849138964090716,-1.3554380856974366,-1.0252244179181582
-1.157779836772963,-0.48022700395533024,-0.6541679935605318,-1.0405079355376976,1.718970297460685,-0.9948931815696507,-0.9691470014073565,-2.4099858005289474
-0.3660648651685406,0.47890077456247204,0.7728661684051142,0.6988655713375123,2.1606851824224136,0.10481253047517393,-0.04540359356386421,0.3758352402413182
-2.636290920753626,-0.33818784328854895,-0.724169635745698,0.5411004025682338,1.1044089005238553,-0.004487000449057167,0.6696636351696486,-0.6411053469126595
-0.08777647161296558,-1.210258361342464,-0.4566538441054814,-0.48445104993540505,-0.23853431380303208,0.649896739867576,-0.7435544062484142,-1.0957208746593046
0.3595589220800314,-0.9074255864560758,-1.0769796159152767,0.9285890928070865,-1.9837259142006334,1.2829415745622794,-0.7147189673254557,-1.1748330544187098
0.13368429549234329,-0.8377435499991298,-1.0938687948961403,-0.7017250302648346,1.0609607803952685,-1.5173453815674272,0.8614779217484764,0.07919544741903167
0.4153436937067469,0.592021677332758,-0.37467786907342343,-0.014508075259224464,-0.3120722289926272,-0.05931554910311015,0.07663967325719805,1.8260262561811735
0.2530084447099486,-1.914985924663322,-0.5917850663382632,0.9559841928090042,-0.3567145355810496,0.57358061434244,-1.7813219674298437,-1.7758546372815056
-1.3752807006124554,-0.5042589871335296,-0.027596458208737656,0.7169204420050338,0.34165759651259214,1.0242478210783752,0.24082157567044002,0.8279909559133669
0.3095746694960594,0.9707757494577409,-0.29497351483631495,-0.19430676734879102,0.6186398813413654,-0.5371153994622775,-0.12106813209065187,-0.11242911790558602
1.6578906562405573,-0.7998442815743316,-0.8343645050539691,0.2710422318837184,0.38894786775390117,-0.19527710513814492,0.5761935754699054,-0.33550826720876875
-0.09420858888394912,-1.4527720008378724,1.1110893774025026,0.22853433035930573,0.4195389237666133,0.2461107022719184,0.15421588218025464,-2.1574610908946696
-0.5214137828828987,0.9711753398267966,-0.32835592706511735,-0.5308707651199608,1.511308496997452,-1.3766372915920584,-0.4105167496163038,0.004326002890685153
0.7745722164736449,-0.014813982710200938,0.3360136382181931,-1.9702046423836719,-0.322150162381637,-0.4434864311345817,-0.7042244525073081,0.06321734879681558
-0.026342080224886565,-0.948417752264459,-0.4431596626826498,-0.2951458830719477,0.4756846824770449,-1.5444080278580357,-1.4916759344498027,0.7241790717021606
-0.5418452669916767,-0.10059267994276501,0.23226962262487313,-1.8132782432405115,-0.7303126371251962,-0.5813321985267635,0.19959418682026356,0.14654161508315514
-0.04733217989909814,-1.1587201121810615,-0.42497168240288935,-0.3864065468763052,-0.5562464044011929,-0.10516859269464056,-1.3070039004210359,0.11302965405145203
0.458117322247302,-1.1068475217564504,0.6470794884788844,0.4253983487581699,0.23370039486981903,-1.9835568201035878,0.38442213389625446,1.8685562778373501
-0.8410335831244518,0.4562045207647468,-1.467120707313002,-0.6085555780843838,0.1650641561844409,-0.04140044913778175,-0.5238090497695991,1.0378310938307738
-0.4851239080224128,0.049136651161629234,0.025108190158852177,-0.3792330102139779,-0.3942254301539542,-1.1543102396904117,-0.9617194102239085,0.14321305429326056
-0.8728976018597535,0.968100711694456,0.03712330920749935,-0.5271445645288094,0.75453295991598,-0.24271573365271326,-0.7722754521779747,2.7106872423554966
0.18068230747968222,-0.23745281684876163,0.4297329054222445,1.4114089168106727,-0.5499333799294471,-1.3082573236197026,-0.11991613873719098,1.062304450994388
-1.5434944360344738,-2.1093690445877513,0.004850002010759881,1.1768786530310682,-0.8247535475438657,1.4332015704255885,0.5750129102570021,-0.7506984596096345
-0.39814245372983126,0.8357547675837597,-0.23680447599729446,-0.14904855712084147,-0.1394715020802384,-0.3785593635970965,0.02324031328391425,0.7526118281549513
1.5492522698411029,-1.640080628693527,-0.038964099389127614,-1.5732107997424019,-2.0397873160586606,-0.7200022482851492,0.14145905924160287,-0.7391318928436128
0.31806040280829345,1.2417530620092165,0.5927553661033159,-0.7999577075297412,0.5976187320718611,0.30543734066916545,0.9625697953337229,-2.3289690508304957
0.6381608524796959,-0.5931623077010397,1.4837824094400618,-0.6933529212535574,0.7591559086718213,1.0881416816069975,-0.19511934383580823,-1.9304609710501819
0.49016930880721926,0.5452073988655521,0.21008791338306027,1.2265499793784054,1.4346944861361637,-1.2551447240205234,0.07917056971902635,0.2414675397725795
-2.099845930480008,-0.30533208284479807,0.12844064998125362,0.04901491630678021,-1.5199374360961366,-0.3538321286084733,-0.0038863948036870232,1.5086354263080697
0.4156066542363422,-0.44797403322205004,-1.9871434806656374,-1.9119763720995633,-1.630838478530558,0.17783043470487847,1.3343584040338448,-0.17534871084070813
0.40971738397410357,-0.2555640824463824,-0.616371093090847,0.8465633599881874,0.23482579865427566,-0.3753076168448304,-0.3734884927858091,-0.3414293778573515
0.6848428918181719,-1.1546724536727841,-0.12030380234903977,-1.240407569219328,-0.8755797401162918,0.4481840496903408,-0.6327303319499612,-1.7608387221507875
-0.06869989296984938,1.5119631311046586,-2.0523917080057688,-1.0673363838572738,0.38539880317095326,-0.716175474787221,-0.9546830720373878,-0.9487499981105239
0.39871455914525106,1.097107048962818,-0.30796299402155897,0.5763182983609392,-0.7977086890732854,0.9874975740688182,0.04751326563600692,1.3487471103964233
0.240682402203081,-1.5751920519951053,-0.8426927152769296,0.9189266787551716,0.0735077096772558,1.628767412734573,-0.25202010979168377,-0.6755801139956897
0.24389050485022135,1.6209663436376938,0.4929335813070487,0.30152249578956514,-1.01855696349197,-0.7140064048920806,1.472165087185632,1.105942250358342
-1.298190189266033,-1.0125694892822266,1.1972141728818742,0.027193780512834394,-0.9340546438506967,1.1292235273130586,0.05985281235551937,-1.8006985351385933
0.9021720075165277,-0.836023249302736,-0.2480898778499125,-1.2158529707575587,0.17024193360846618,-0.014345404451008044,0.7286123517111729,1.1262725988314788
0.006868478807337321,0.46424227406793456,0.9355413095163165,-0.5175465893855792,-1.195368550874802,-0.016975607143134105,-1.817339987993105,-0.08675548679675145
-2.295185044572852,1.219383238207366,-0.1944451235888458,0.669671051388758,-1.3218636365017382,1.319566204338428,0.5936834766668931,0.2291528369546763
-0.19719955029770242,0.7903159162623963,1.2819950564817044,0.3864297149840969,0.15801039019038773,-0.8371608443918709,0.8516792117859022,0.17809209910109858
1.1179285179079073,0.4328097585389122,0.5984996437978655,0.98116512730077,-1.1564190820663307,0.3723479055786849,-0.5885220290395439,0.4878909901145181
0.9489686103549825,-2.142068300815933,-0.9933424793390365,0.5610653937635186,-0.25407910846000537,-0.6145869916035734,-0.6685941633415083,0.3796110036978119
0.28579324845104304,0.4910691100600086,-0.1755447222665199,-0.19210603139341884,-1.5659395497239854,1.5862706520401275,0.4621951570826314,-0.3519653594201065
-0.8287879849612583,0.318306923939217,0.7841479538153955,-0.8374041024846626,1.0641927237797753,0.15557981863017545,0.9275410054207088,0.23011525976348365
-1.3603981019454392,0.8489840080422737,2.328381181387412,-0.300310810312552,1.0255241667477135,0.9721490307360372,0.8095754876219529,1.7617701140759203
-0.7753907235425093,1.3252747790246007,0.10038770223144741,-1.2333820068108565,-0.15544326660037344,0.4404741207932062,0.4336877795138637,-1.099083203638713
0.5713630480753217,1.06296585972353,0.24725206713704806,-1.0951516190256496,0.5189464376880487,-1.0244769167874521,-0.8043852689900816,1.130518274100335
-0.9890520435636969,1.1846727297871478,-0.38376258233028426,-2.264407830114908,-1.2994394081628136,-0.6438871648491069,-0.4618632299028221,-2.0578019889261725
-0.07621876318719276,0.8745302347375546,0.0029553732652030963,1.52399898794313,0.16132557530926891,0.458692139217637,-1.2316659268458896,0.8855235433000739
-0.23634810652314325,-0.2240263957524385,-2.120499902812043,-2.1521990700547935,-0.5467129464899938,0.037655950798875064,-1.390622588746439,-0.40397030629907205
0.0721182109083566,-0.04693257557663443,-1.486720715103611,-0.4677251442253799,-0.9600329094129288,-0.7526971776161336,-0.00415338348103605,-0.24175973902096184
0.27341630115991417,-1.3449026742095591,0.036939609124285476,1.4424835472780955,-0.1773603902203998,1.2663362526770732,-0.07453355913166541,-0.43824280948773714
-0.02089348675613296,0.6353148543619194,-0.4728969183162213,-0.922487441409509,0.6875311757471938,0.41913306947367296,-0.540588374412151,-0.6936497916558162
-1.1797742754044407,0.2753113610122455,-1.4827371987392766,-1.017585670886488,-1.130181164608013,1.5043482436391262,0.663057894981628,-0.5460087855981669
1.8012138425005244,1.5730427138796974,-0.824378601052192,0.9641738367572117,0.08694383842703551,-1.933421293342968,0.35954350471372043,1.084470908669516
-0.6305889450296425,0.8251375825374214,0.13826879515830498,0.9467476139619379,-0.27789929265670593,0.2995926352502452,-2.0136128073696877,-0.4218286190240933
-0.5620596423080406,0.5130892949426457,-0.34148210615908786,1.9192159408665477,-1.0869840624772535,-2.002251617911683,-1.2892849902692414,-1.1784517666151682
-0.718273002357134,0.7944218209799678,0.6472372884371218,-0.14213834100377026,-0.9514465743103516,-0.5459805059696675,-0.8833344153687135,-1.6739110012322924
-1.9937468946192625,-2.050111590087196,0.1757780206084468,0.01965579047594164,1.489690677849467,0.4154798220491846,-0.8646317374165171,0.8211722909322364
0.7733379508440212,0.24855835820878658,2.0012315445525486,2.041663064753364,-0.17990641140693622,-0.5892879338222882,0.3027497725870085,0.767157835167365
-0.6665498523717488,1.580416939364699,-1.0128093870808892,0.559685291923316,-0.20404719687609585,-0.21766641269950823,-0.6902842243089599,0.672580116319012
-0.813688516800234,0.7033015313199834,-0.158558178717803,-0.6234791936349005,-1.2558218938229222,0.7231392692774701,0.36799093593105203,-0.5895479150585627
-0.1132001146056638,-1.2346325587172011,1.3308947217719904,-0.41032349705474935,-0.8181904694170522,-0.6775053260417264,0.544678308136616,0.9043906682032751
0.27382051627110005,-0.8698167676683357,-0.4405757947793184,-2.31083978903732,1.1040723396195098,0.922725966734816,1.084916598203126,-0.1162948365332555
-0.8861330040411926,0.2982329051576276,0.6609557137189304,0.25486374621356966,-0.5683309711802099,0.6538304961739012,1.3562235817866954,-0.9845401889867711
-0.6197140070849029,-0.06641458556229653,0.6122030123116747,2.6256496562751175,-0.6807518852799563,-1.6478765080904243,-0.225073716987297,-0.1908088051652284
0.29710814833680604,0.5356466160447052,-0.4795609345274882,0.13749235744779123,1.4762277286852146,-0.41817158372544033,-0.6963029065115969,0.7207060433750144
0.5424138449147161,0.478415036510141,-0.1245207488346415,-0.18045282856540956,0.9640500599722865,-1.952077734068037,0.595449074356296,-1.5059063650086815
0.17041700637464852,0.3927407199553252,-1.025787259168174,-0.6247644442397227,0.8374166975211786,-0.13842491694111628,-0.19068728140717717,0.41053902742360376
-0.0574532765351964,-0.38179120520906934,0.941214115632768,0.1348899573052686,-0.2368708278644523,0.20191982846049242,-1.3004724899054427,-0.5813760599389042
-0.7028437442204295,-0.5607078750461049,-0.16914516532203513,0.2126687206833778,1.323963521535921,0.27806467866069023,0.9401982846272174,1.5324571219207315
-0.09724577019706201,0.30535930787528953,-1.287252968673298,1.7747256498049082,-0.9071479398930744,1.1615580071320624,1.5421036061517324,-0.6592200548581951
0.46534460152245016,-0.7971520982694662,-1.9533690900399725,-1.509085527854932,-2.058870207495711,0.4347686181784963,-0.763010563607207,0.0788436831169349
-0.1615593463126206,-0.9093458662006756,1.4066463826136988,-0.5155753691489833,-0.3802770728816633,0.33685223758195254,0.4805996238273531,-0.6648208716089473
0.0824943033578078,0.17334321877296066,0.36771027333754025,0.3600169389092656,-0.9223059313308075,0.2317164203101819,0.17973147453216248,-0.42715027274159456
0.393088948706514,-1.0736013150686574,-0.269257658863091,-0.32670721790209084,1.198537634213872,-0.2776377774911724,-1.633482560264286,-0.0869269383975606
0.860601450382853,-0.6831729899213409,0.5787067095853199,-0.07669172228916657,-0.20308244479682272,1.7056381745111804,0.11345360626546215,0.1337184287675156
0.42239786193169077,0.3986043278839298,1.018730012247874,0.8912956928067727,-1.2108065220704771,1.5805437666250681,0.2850259737770283,-0.16414417203651413
0.7863143099623732,-1.0808650085999407,0.31075358388062674,1.002025422566376,-0.14166855477304474,0.6371168720496402,3.0901088559930203,0.7621068782620007
-0.9679925449267105,-1.3156177368078192,-0.7655928939101359,-0.1062004812145099,-1.1992614364427074,0.015512510470725261,1.4310389622076356,-0.6761370642309091
0.08881619715998174,0.20203860788299055,0.3238427826626238,1.1410493456911546,1.0815108373802822,-1.0934638333133904,-0.23824114573924327,1.368938672987076
0.41730222489119945,0.6464935885454964,-0.8792416106299802,-0.16179887785484548,0.624806586113559,-0.5769276219943181,1.8736781921631918,0.20010407628774246
0.6702327467519399,-0.6563219786546051,-1.21371715123972,0.5304893592459905,-1.401428385945153,1.138732856895519,1.4768520055058467,-1.1672746179627822
0.5652446561832112,-0.20609647235036452,-0.5200251755342158,0.8825779083845329,-0.05312394951683841,0.9923595998586949,1.0207533502390327,2.1472644647784045
0.7216727895784709,-0.06634525779341466,0.7580979952717297,0.6877945577839766,0.9273641974293914,0.8282586882850739,0.985719133967868,-0.2741632626799738
-2.1821248611623894,-0.6047034630575734,0.6436064201623574,0.23191305441300367,2.033328523405937,-1.0077607417516035,0.6046646892455556,0.9831075267937526
1.5090600632536453,-0.3154114234344293,-0.6547114660729562,-0.6637038070912534,-1.0320767693386526,0.20121984386353844,-0.4037886580757664,-1.491393632357122
-0.11477501473086223,0.6454812947155846,-1.0966871864565129,1.5205811553625443,-0.23123577685742167,-0.040438665689934594,0.5823604125389966,-1.1302439559074096
-1.7243920156182875,-0.29657049748327596,0.20520978900157347,0.4427454013867514,-0.46766618879313454,-2.1842012112619313,-0.13593271355058162,-0.5001182416141854
0.2024246909931702,-0.6542129689603081,1.6197443498525832,0.4463049689576136,0.6126000900599776,1.2826073496320647,0.7902705044380486,-0.8951506024949504
0.6950833899347979,0.20542634406266824,0.8832530609193386,-1.2846808908062317,0.9964992083450883,1.4847475382161284,-0.06984739303604773,-0.1758471481276113
-1.022680864424287,-2.2745811802610763,-1.0425330122417968,1.8192558019144278,0.1895825761483438,-0.338224172560141,-1.3300839287406332,0.533562543788145
-0.5666801984155657,-0.029352112637329227,0.5841446561146362,0.3754312389807729,0.07325640215063248,-0.8997908337218391,-1.3102508882635129,0.8143239145056865
-1.0479158144953489,0.14002292090855123,-1.2342660317945537,-0.652296414903518,-0.9564213011682582,-1.0609964729267354,0.6705266412807284,0.9032494081882524
1.231682971577708,-0.8561608095084363,0.2433461546158917,0.34975923957598093,0.16430596330484054,-0.5724036741155435,1.5182211987296825,-1.2908275649298118
1.2394393770469259,-0.012373308611983738,-0.8357682596384679,0.3471430291692937,1.3888468340521998,0.6173351820641632,2.2839910168933257,-0.7040806119890184
-0.6826654021192231,0.653268578625555,-0.5417506030804805,-1.2247545024642854,-0.19498108798679764,-2.4756588869492795,-0.6121860465953002,1.4728417594012053
1.4662294302266554,0.8185381367858741,-1.0742682478362249,-0.6725350624609999,1.4091633744882237,2.5450730022117125,-0.22269760747033984,-0.10902577620978798
-0.32255404772591434,-1.0069463115208577,1.8211900376113763,-0.18386570822759657,0.9252470533317353,1.4053707898755006,-0.49085586391269664,-0.7016438021006287
-0.28529925123417477,-0.8063084049876763,1.3735822494725576,-1.0167716362025472,1.1984246465582313,-0.5308178142221862,-1.4022227364051072,-0.7246437549918716
-0.48765334720447645,1.1084773475987997,-0.5106652280987506,0.3622161768625779,-1.8089324395525421,-0.8533910135549645,-2.8024787562332456,1.756298768246876
1.2642421621031725,0.5324360701395838,0.13117202244441162,-0.8211336325824689,-0.33737532425352185,-1.0629040413998287,0.19019466829671974,-2.530376480367604
0.37857308895197456,-0.9975377596277752,-1.7902523157154144,-0.600015686688201,-0.41299620091296146,-0.1215230355339271,0.771457607025533,-0.15877756165451706
0.4044636070321461,-0.4005843626747201,-0.06095761904010937,-0.34714567788118467,-0.5479618457150961,-0.03429125764781167,-0.8731605441360191,-0.46455658063389416
-0.2514294798384218,-0.7035399265176809,-1.2689743376987772,1.2994606961713604,-0.7011296570830609,-0.3456844761121289,-1.686534649375464,-0.8877384565470864
-0.8219838756038128,1.552095030105692,2.2582564784264822,-2.348653064261123,-0.9071671342168023,-0.09313424974127325,1.367977692158851,0.4444444547881585
0.446270657024227,1.9413251393365314,0.033857197450192444,0.2751919328435993,1.1353733022832586,-1.0494524910171141,-0.11506474068785064,0.11207810588505915
-0.3352412556919732,0.08511806203089557,-0.2923921748042399,0.37345567247685635,-1.3441668636948985,0.15870756538472322,-0.3780339086239458,-0.48787940913891614
-0.42264583587994653,-1.4277889028105633,0.343496540679436,-0.10779853869282259,1.0496211188480513,-0.0745984451715681,1.022092886586036,-0.9234754614747328
0.007780932092496077,-1.1579502479649262,0.22361251296594134,-0.12532701063146465,-0.8645405431140036,0.13002913853426584,-0.08547538287446908,-1.6761696406882804
-0.32450556533373726,0.18522263524982344,-0.5226847282355821,0.8011731555774034,-0.2480244717502809,0.5605888205779613,1.1496340541576495,-0.04236834152822005
-0.8409227574197705,-0.37937766769400555,0.35191609207674296,-0.5474420522143584,0.9900396161520246,0.6791271154072115,0.690049203797817,-1.1417048344687
-0.1420711000138024,1.2139940481240699,0.26747404246556294,-0.22720575965704365,-1.2811967386014689,0.3939500872009784,2.524605983688637,-1.9482289485303865
-0.8913859356225393,-0.20673658224860178,-1.1818644234276183,0.3784937380081187,-1.8002293911854435,1.2295723897196185,-1.3517122832990878,-0.8444838678466179
-0.2774175803721381,0.4914329456725589,0.8128574776696958,0.4955195734567457,0.3250707759091042,3.389937080196146,0.1051339359613084,-0.7779389609780696
-0.38024430715090946,-1.315272985516444,-0.1537202701701772,0.8896310986939985,0.5203493532140857,-0.9480302119491847,0.05983157156092197,-0.5535506768225835
1.7235581984517492,-1.2437518399951684,1.4279762419707183,0.4875302577618854,-1.9267525625544188,0.5862455584581485,-1.033105185998696,0.6083594332262133
-1.2402469762480028,0.7046897936412844,0.9889775073624941,-0.8066455046965036,-0.3340608901464996,1.0328427779895661,-0.029336591948871685,-1.6792413879691104
0.03628479840586598,0.6530025132057948,0.6855204461466373,1.487519714295846,1.2247392628963236,-0.25081482452884346,-1.220750703771529,0.37587256181632694
1.0163726026009645,0.021394034424836887,-1.6976249992300474,-1.173957223574647,-1.1289996779423115,-1.8033272709873787,-1.1610476394143934,-0.5521836576089069
-1.3967001135757426,1.1517657545380293,1.6018463655509614,-0.18196914908524925,1.4951067343167022,-0.28525642452551486,-0.8829239486638217,0.27031713067522456
-0.7066602594371698,0.33423512841856967,0.21683845092813475,-1.4748647303921103,-0.627172590640052,0.4990861831979077,-0.049614763994402684,2.4558059591826082
0.8359831760303758,-0.5024126496261575,-0.09036449222597284,1.8702460609807472,1.2615785670907886,0.04011416402068624,1.118944390796726,-0.700621692193975
-0.2761478376876293,-0.5739138299775904,0.5612267972575553,0.3247045397386359,1.3182198122469961,-0.5195280175017458,-0.9599197252401953,-0.5055202069640361
1.2971846034639938,-1.0570771365509535,-1.900580231648106,-0.7978716941216192,0.6370516426899043,-0.21838060489421207,0.27699892145872934,0.3989111276686822
0.9523872901853283,-0.7085111365138533,-1.2894830985019496,0.5870412476342607,0.03393453991123854,-0.04640319521204757,0.23183545564802877,1.186460560781564
-1.8837374871728159,-0.9858627678119851,1.0770195451711166,-0.6610277988369643,1.7791899969778868,-0.5050702304443544,-2.695419134890209,0.8933024012270394
-2.04932793699725,1.1446611612754658,-1.5563323658967354,0.9929705323444131,-1.1632546915347892,0.5935717100676567,-1.055049445518438,-0.2765832737641697
-1.070194464714935,-0.05676255934038453,2.7111600560856206,-0.6361250276411886,-0.0632186946648939,-1.7153260605003267,-1.3535872772114887,0.7558581531614277
-0.931920720534767,0.02393455592038137,-0.9607979582830368,1.203945132036526,-1.4477321197897526,0.2652428040465814,-0.0421736271963383,0.27331807053526475
-0.2030085491334322,-0.6684319650796473,0.13553068339094698,0.9453967409557535,0.7684583608648246,2.328296909904615,-2.096530685381971,-0.030389797589552042
0.050491679513282574,-0.39252859631538733,-0.09589131989996481,-1.435249466064687,-0.08503094672828868,-0.19057570889966383,-0.05896359560423182,1.976672128900867
0.22503732913320051,0.9739034030936242,0.4519332302027977,-0.755503481874494,-0.7889530883510537,-0.5251381445779068,1.0472744978328834,-0.30168453031818077
0.4666063503115968,-1.598944493823381,0.929596186536893,-0.5710109615303667,0.7902997581066267,-0.5487093810245732,1.808000239798527,1.0092676268022358
0.2488149127071786,2.8478917918743947,-0.8760031954216511,-0.37777959913147735,-0.14773038365531008,0.6261835059237177,0.30715354633938585,-0.17496606730495187
-0.13230771794023324,-0.0909442786672379,0.22188981971172148,-0.9323299659311405,-0.2925005753218547,1.0261973163457518,-1.0876429534732168,-0.2038586554790627
-1.8066013486052999,-0.6484460971988119,-1.9828078011255212,0.5322268915680863,0.11466740594246619,-0.12213928079892714,-0.6638018820788064,-0.5347361653951436
0.04014074534649829,-0.6217433974179938,1.569548529762881,-1.7600110874538835,0.6959978970211508,0.5724219896703417,0.752023380560801,1.372993737623887
-0.6112089412536218,2.1888646714599362,0.32080435509574556,0.5380101536256648,-0.940133193696592,1.2648933576076204,-0.5209716538061323,-0.5169621822466215
1.7107098263802518,0.45041868921380995,1.3892131789551454,2.7292735572217968,0.8292753342678079,0.6065988347642468,1.1295421096299558,-0.6624135340387717
-1.0991215500435,0.2794495849388244,0.5867583827055554,1.4166554750143092,0.1226369041662662,-1.3088589397976411,-0.6288575691346632,-0.3733418005642661
0.7628783522275975,0.5637099368722217,-0.7179799575469459,0.07238230283961546,0.8654742904469818,-0.46132686755856556,0.5479541055519525,-0.09671476769459929
1.5809975646443186,-1.939246685981002,-0.06869850638046393,0.2501164895316971,1.4377207066666107,2.5274097849146,1.00234317263035,0.12256894977418557
-0.7216814869091874,-0.5026608814673088,2.058624996810339,1.384861573588882,0.03338165535530405,-0.9065964806708287,1.1486431994180148,-0.17098990166716396
-0.2875593946365045,1.233148759305949,-0.42346145503072796,-0.8150984749195074,0.9504481321588933,-0.46669039557068476,0.5601566098292253,-0.03010809704353404
0.2201550805803175,-0.3743762935484246,-0.6714206174854377,0.9016285951158411,-1.3003965922756053,1.2033806871459802,-1.482393160992074,0.6059274772333753
-0.633139835180398,0.8636140328299455,-0.01866283906624649,1.5833901113490043,1.1401714656400965,-0.38255350822135,-0.5333739126192483,-0.47515987671747756
-0.47905788709390423,-0.010877487523466204,-1.3244240804544418,-0.00980767699600331,-0.3767981812531662,-1.4765948278592333,0.06785281437647411,-0.4070691062147186
-1.4113125853286062,-1.2934675639947142,-0.46768084775588553,0.13564551436495775,2.3763352782375557,-0.37990945016383115,-1.5760284323240648,-1.2822356807827386
1.3649176962942333,-1.1719963432170364,-0.5501979681434871,0.36449900232430155,0.8968725343877878,0.6822043693033907,-0.7666304182405071,-0.9880374704626681
0.13170729476637966,0.6307663999624614,-1.9190629547561209,0.11488773427902325,-1.2211285145216733,0.8042702716307879,0.7657481908464356,1.275295041121485
-1.4505523921576033,-1.6378950396786711,-3.0650141762216054,0.06366829088809703,1.5188244639593793,0.0400287198649519,-0.7614063719975733,0.28200802133750835
0.20614409694329738,0.2655537919936712,1.2094712589912275,1.046398374856807,-1.291259217488001,0.09233553766760005,1.174373809449405,-1.9610852586674985
0.5846400402283526,-0.8185808148158115,-0.4851027794322737,-1.3628539008785165,-1.252035471749899,0.7073759063512489,-0.10551126767747251,-0.8336010254155809
0.9306509095880712,-0.49579400237737037,0.06395391914919633,-0.5703041982803769,0.8471618979450749,1.3143774385620655,-0.029854041504395638,0.3078669431094445
-0.19244499083720587,0.5101096105635181,0.04859023688990932,0.3500162406861639,1.4679227553534238,0.13395507534562362,-0.45293575503315836,0.10528443783504575
-0.2063122369381888,-0.3046251946114687,-0.024570859338146116,0.0048708316181806125,0.07078964400728936,0.6377705695888478,-0.44741667022995096,-0.6048019031296566
0.9698107954334169,-0.681121036183883,-0.9396420827706666,-0.9010618554529082,0.41979312267798025,1.5580709504050423,-0.6881942169388898,-1.342270092987885
-0.27311838260319055,0.05516517885491019,-1.291082551090528,-0.44632120746594584,-1.3353734321810213,-2.477351336854306,-0.6721201084731883,1.3195057090228457
0.5713236824903742,-1.7467255968463877,0.2867886000335829,-0.4977848704932941,-1.3378510581827967,0.7994129205606235,0.13370346452233559,0.3794064836428798
-0.19785042180731155,0.3213880067122773,-0.5990481874613562,-0.4689338949794023,1.038271283215254,1.1281201357276804,-0.5476820236628988,1.0932282095433303
0.3650163573886568,0.22223665220181038,0.4922750414551828,0.6440051727516238,-1.3202792818938032,0.34625919261095184,-0.616104480510489,-0.45685951481738996
-1.0972530806308092,-0.2775096513046737,-0.36267163371179145,-0.30949923898082504,-1.5866033818678362,-0.32465067460841096,-0.7422055760015825,0.6240272592013084
0.8653777338930337,0.20965642483418664,1.4009406554037693,-0.8048704927009712,-1.308599176687829,-0.2665844421224757,-0.21193210004246651,-0.43439252180651167
0.01394023899938757,0.913207266545459,0.8308362035547805,0.4691485407480872,0.057077119768716926,0.3346148910990501,-0.44558270803738875,-0.1058880393338782
0.9981149705483929,-2.049858873407777,1.3440228975349724,-0.4373444788303666,0.6985180094317872,-0.075712645868598,-0.24909820097241211,-0.09261018465410467
1.4470049402382714,0.2066196833364284,-0.8305122207839926,-2.1805105376898672,0.47415632312565803,0.5282617086865599,-0.18731179788668167,-0.7396159166791664
0.3338438259286262,-0.15067647439093468,1.2112154484289854,-1.6265397679529114,0.22599890448944615,-0.9673700543113525,-0.8242620807562535,-0.9598473022578093
-0.5452262182678269,1.3278756145825124,0.1441420099406485,-1.1051104751041898,-0.818790193846709,1.0469574240775354,-0.19926432716602943,0.6040829461722924
1.316781176348304,0.9060191442711416,-0.46894848628921587,2.1812727497637248,0.13921551894074197,-0.1141422307483887,0.9265589518646508,2.1991381232337432
-1.928609841096586,-1.385446321481313,1.2919260668558001,-1.350367023455628,-0.12657108522414476,0.5278343888630567,-1.1919784185638367,1.3268825024314517
0.32386799293124713,-1.5190724480658189,0.6099862487372347,-1.8811771782635665,-1.037311460377632,-1.2939249685087308,-0.2716329029973339,-1.2598578442777362
0.3745315047103204,1.4241251133890493,-2.5997057900380343,-1.0173480488217446,0.29706025215877035,-0.015149726741517048,0.833765025432288,0.4799967867596543
1.0971624826666067,0.44538609001159774,-0.08854886323013797,-0.023681464933542954,0.7900003601194642,-0.33961416167036984,-0.7343387118520867,-2.2225360622958843
0.9788020817387628,-1.2427082387445432,-0.6865958816190123,-0.4220010670241637,0.3542504595055961,1.1952605605647608,-1.7927474558001633,0.6877779432608047
0.055608442106590654,1.6940982351797926,-1.9349148928042346,-0.018049569882916974,-0.8309123098931284,-0.43221427986294536,-1.4871409680141445,-0.4869764406994261
0.7539811691497691,0.5473656486039377,1.0613741329171593,-0.8695512917509528,1.0123560240470122,0.32811360408766005,1.2025556300304914,-1.2770836115902742
-0.1702843950889707,0.12426466599010656,1.225229635393739,-0.6447570673206031,0.9238526870048475,-2.7934649950317527,0.07649181052946182,-0.01810273353460201
0.667830878865135,-0.28139637088941977,-0.9196053241932919,0.8530302759931145,1.8871135056207022,-2.375833508940496,0.9657479968236363,-1.4456572851703073
0.028005390173224065,0.4456391134389663,-0.8985251469358557,-1.9308649356392709,-0.4931247001235567,0.8087347550884322,-0.2279416748368487,0.3495662828546421
-0.7237334228913332,0.7924244156223111,0.9007635024623346,0.5537468944573068,0.14748341327215872,0.46562839989145616,-1.3576541412959322,-0.8935100141076306
-0.4670013868095633,0.054724791479534976,-0.9463043063434414,0.7252107708798712,-0.06676111286258976,0.4965316581541436,-1.0140650492354786,-0.5608004132338172
-0.9943757348134333,0.8925739001435736,2.0426288845081557,1.0291273085115595,-0.7930888792475087,-1.0710314782986652,0.025564003472917055,-0.2285303207033151
-1.524949111735275,0.474030177384963,-1.4556358667936695,-2.250327840691361,-1.4209526352858937,0.3081477802872937,1.7948839622658819,0.9043879900612913
2.3306569439489686,-1.4305746367961898,0.02476603846666846,-0.8549101374852764,0.7955841434061854,0.33444350978323173,0.14833868395047783,-1.0002402143470348
0.08495547294940728,0.9137677667506358,-0.2680509425719223,-2.2107805248775447,-2.3348984827822914,-0.6871515761134595,0.8012473319104674,-0.9568548924593923
-0.6763288616328538,2.100072028325111,-0.02579639894092428,0.41661277277587316,3.3974285658894794,-0.7237569591820583,-1.9012057778058526,0.12553965356066513
1.8438776473964529,-1.5442858133272872,1.26076926615522,-1.1952497791896102,0.23075026340972463,-0.6343054313865386,-0.23394020714023764,-0.2629710625031413
-0.3560725034816098,2.369745649226105,1.7248983733726682,-1.4120141988766106,1.5376969332386534,0.7699393273240931,0.10149762028667442,-0.5325984707453727
-0.9423634368411935,-0.779529867271541,1.310996593369577,0.12474223786441285,0.05094130409615448,1.078809611906374,0.0396260417771402,-0.04464361465256438
1.5994774818263613,0.6667203511991834,-0.5412125814768947,-0.4927125722016335,1.1791333742167887,-0.6419355760483951,-1.268591057207215,1.5537537657218763
0.685129350742081,1.1487565995329139,0.30543264176923896,0.93788619977599,0.6391244115698099,0.5631539489388663,-0.414039067139163,-0.6128170792628655
-0.18429472680001444,-1.5403905995225708,0.3959896493296204,-0.1569288666824939,0.8930823606024026,-0.19043438032508783,0.6031574088079035,0.779765759473202
0.22117147684884308,-0.6192425944399199,1.7608004171898748,-0.3693269877728671,-0.43739790949801255,0.4846241792388515,2.0577654443674063,1.403223466615218
0.36933984563892935,0.5146982190020701,-0.25854053852147263,0.12830608231461424,-0.1587433558839503,-1.1306715366522975,1.138090482465001,1.2284956402539917
0.8619947244294608,0.9566887066370882,-0.9014073398368677,0.6225199929190988,1.6074350003081725,-0.3164226830001184,-0.6191965046037039,-1.195785630643663
-1.5849191049181741,1.484851175110538,-0.46914984555655065,-0.7153525899074654,0.40721223522679895,1.6059169474886716,-1.214254332827304,-2.7400961562060977
-0.11425351556940275,-0.87041552848333,0.14264752987937515,-1.2995119422398034,-0.9028414917699267,-2.1611462169023747,-0.931778618301349,1.0217193117097279
-0.29406606545914193,0.7642266086434849,-0.6371325450290786,0.9313501093181558,-0.2541229576707836,-0.6809640157600501,1.309142667440171,-0.41601653001695327
0.9663061115108916,0.7423769230586004,0.19000401826506944,1.7324851569575987,0.8122183216702894,1.1548269162096505,-0.18604561113578372,-1.0359462556537584
0.7664996594916185,1.1467952599042226,1.818980838225297,-0.27140343574106585,-1.000302531698052,0.9864821321500513,-0.753436265190444,0.48700575348465547
1.0256326124681523,-0.3257526717272799,-2.1898482155258097,-0.11047453726406667,-0.9584768747800633,0.0973201815386288,-0.8106127924008959,-0.1431360048926394
0.1371597315873757,0.9312085974267674,0.4726864233882009,-0.3866644419021124,0.405715254202378,0.04774303099552908,1.1638495172199432,-0.2833772899348936
0.6139549010914886,-0.7578170718911117,1.2022500178743007,0.11060019649808364,-0.2401625104149307,0.9070367936827978,-0.12962355001551948,2.062697445693757
-0.04760504410591284,0.7618198105793886,-1.136592790209401,-1.4531209673407903,-0.7946906896445359,-0.12048251871249255,0.15164464056235055,-0.9957264054546429
-1.280332275689982,-0.3754166360006598,0.27273780664367536,-0.5871204096962594,-0.6314840356783387,1.5579432420381065,0.10010749347500361,1.2225968013673585
0.38336422641972157,-0.34536222628802493,-1.253644298822607,-0.5189526363805661,0.6345545544801966,1.6522879510661554,-0.38555452224330244,0.6183900946353208
-1.4180311727991404,0.1626386788312451,-1.0355832953363726,0.857685576631402,0.08421029431016215,-1.5551286919888059,0.5153953290568597,0.3881169659217928
-0.3758020628107047,-0.5773495499279094,-1.841880672795833,1.2312847453664866,-1.8018897756592038,0.2417886195305442,0.6850584111764505,0.3986347042888178
-0.7386283796403559,-1.1426281984306983,-0.10811983933078616,-1.337159689905982,-1.1074624198267715,0.5682381035076771,-0.13992440342692852,0.9381395494972804
0.21215241790584155,0.40123906921862657,0.5189452707923239,0.03241746237338442,-0.513318647168696,0.885615707018648,-0.32516343792665925,-0.5173152782085261
-0.5778433227891565,2.1328628835608066,-1.0465026685547494,0.6704409751348105,-2.198619362873698,-0.9235855219054951,0.11667891921134003,0.8604786238684683
0.07374092943892337,1.411467762103638,-0.46348978437268595,1.004714608000051,-0.8324506102685868,1.7220184017084506,-0.3103970101248032,1.817038763646131
1.3276040172214196,-0.37633957720604766,-0.8665632204884202,-0.7847289598943626,-0.0879287716295955,-0.5061967041467595,-1.6727511673952866,-0.711566102184882
0.49328555705555927,0.347754141447641,-0.5232358133205149,0.16492414835131308,0.13714742509116828,1.4289889110829757,-0.5195325305487152,1.6260049174049727
-0.9680952824809514,-1.6213284340642884,0.7287365190190322,-0.4300100022212899,-0.8363892618786744,1.1207054262987894,0.17296112689809276,0.7629444004353823
-1.116771288717588,-0.046759729966675496,0.6345262532452469,-1.0512382711370412,0.14847315271425598,-1.4886467535311372,0.35341659478621706,-0.5523403793799433
-2.4136690820802285,-2.9148381768379794,-1.293127945095825,-1.6704828898497093,0.4773922297366533,-0.10069490890509404,0.37214998710690556,0.6028272576419549
1.1620718155668266,1.0374341250273902,1.0488420189504273,0.8095291077225791,0.2676069753526384,0.9200575075315582,0.0299606380675984,-0.9902417407212629
0.9006241710100009,0.4212004501198329,0.328050786969917,-0.9616868963514226,1.4620951073440098,-1.4112980653948617,-0.2676329947364872,1.3880011684100035
0.7319598517812914,-0.14034019700718092,1.1019472164148265,-0.07436391584331244,-0.6844261290106817,-0.4517468428064529,0.06972636389565093,-0.5900343643432038
-1.4821279924069617,-1.1794729865241902,0.1658019261525958,0.2936986722991318,-0.02518952062161263,-0.49762344445674617,-0.2566671111188044,-1.3194700606906924
0.1695313493476443,1.1788269667312674,-0.2980902985584572,-0.2510859636001065,-0.1731844903080828,0.9295438426195118,-0.4545229002347108,-0.5725382745023966
-1.036394589541656,-0.09526923443594462,0.8898440674590323,2.0864619925554506,-1.40588585192045,0.2790877783070611,0.5408962045515495,-1.9711404118812108
0.6517023982834382,0.6131614427822716,-1.3651479545145728,-0.18854572197627154,-0.6851165690258426,-1.0694249338411483,-1.5169695594756059,0.007691140398750409
-0.11841655774252799,-1.1854907564736639,0.7729404326176147,-0.49516869618907705,-0.6610756919434594,0.20968360003519795,-1.4010996838389025,1.2764927688443581
-0.21746179145948094,0.5340022823595874,0.6960186464164382,1.3903055824626904,-0.45041368665655696,-0.7448001867710486,-1.3218542821050572,0.09344850475715132
-0.7392574985061097,-0.039667904912811434,-0.12729456461763766,1.8675402803327616,-0.6573624105451372,0.4331953201865367,0.15412226414306263,-0.5334887609585534
0.6190055186994763,0.09398483386097387,-0.11925915878452108,-0.42547138818316377,-0.8499641449495217,0.36494595032897903,-0.07147317638110713,0.4239796316406213
0.5679193745856213,0.6211132674203724,0.8451582006905985,-0.6322512895736729,-0.6788880198300341,0.007751482970272492,-1.251991141377915,1.7879304143636197
-0.23025449762487318,0.4219179085054298,-0.27934802858136126,1.1941515036911607,0.7015279994247786,-0.06623443076936232,-0.03625346580723765,-0.42356703702103216
-0.0632072537387966,-0.0815660506136057,-1.5402523674465256,0.14143023533673024,-0.5902334661232327,-2.380053379100408,0.050010223522179646,-0.7057112477493567
-0.12970380594895708,0.29286582795529625,-0.18442452767666961,2.049251229125355,-0.9315119917078322,0.26735799382181813,-0.20654116213869123,0.9732129792387547
-1.0591844948058013,-0.05849310860941542,-1.0762076341640794,0.07072961006633442,-0.4549289123075946,-0.9499377720593424,0.25054342357154163,0.46771015469428306
0.3049842494635727,0.5157762573144254,2.1896186066212513,0.08599440069336764,-0.015262302743742647,-1.0701780197859696,-0.9858641444632996,0.9210513500142294
0.9603223506003188,-0.20051546107725066,1.7702453608861568,0.8738587000667132,-0.2000676007826468,2.0159372525594663,-0.7080033654140822,1.1196784764748249
0.2350440092875799,0.019020871758954096,0.38875236213491526,-0.3160502184473891,-0.24079180724096444,-0.7249245986125116,-1.5299658498410682,0.017504291319138762
0.08715737280717267,0.9715325697272993,1.1221132429482112,-0.7675391105491424,-1.1620217197808047,-0.028997471097680107,-1.1377220811140802,0.8389572969983486
-1.1260381217185176,-1.3254480406054234,-0.9837508858884909,0.45023670026316726,1.4536678301395436,-0.7307360215608849,0.47536741622624323,1.607172865697286
-1.5248493144995552,-0.21952555750688224,0.5459552885783492,1.1142827263137605,0.8671584010699157,0.1234669064091643,-0.9959415373576199,-0.463629552753022
0.3221267216623783,-0.44208328202164965,1.1874299621800515,-0.22878837882533998,0.5833026801636773,1.2481543701145035,-0.9532386737053185,0.5705831048929589
0.7868377633156065,-0.7054863401689063,0.5902931938542424,1.0087586114552927,-1.0779261113688292,-0.5815812055000877,-1.5963490850230238,-0.16013541845874005
0.9215044417062618,0.5802506252560204,0.6879894055702259,0.34103624361799917,-0.6387529881601159,-0.4590091074879045,-0.14391977768726602,0.18217901458898078
-1.2248823395771868,-0.29485619235274424,1.0109389490316216,-1.5988983106393282,-1.2349432732822794,-0.319550217607215,1.2228212165457963,0.06443709118553029
-0.7315063534856876,-0.43241790144789277,0.3129149920777184,1.0896439768384891,0.8764399992365,-0.5415858804028773,-1.8737921178674914,0.144271249592034
0.07527627068994992,0.08606793729164407,0.3478913833067129,-1.372141872540114,0.8647816903306045,1.8197083090317259,-0.5917763030120688,0.14976633995145525
-1.5761893130599878,-0.7023873362273028,-0.02922295430138883,-1.9942972886486818,0.5254051278776278,-1.0305027864614176,0.4525532709683066,0.9008959104426397
0.8926805761365553,0.5059910025971854,0.4918511065034108,-0.5410688958163753,-1.5832077739723682,1.7321694958478093,-1.2485662717505701,-0.9147372133157328
1.1800426167547458,0.5605293580759224,0.7064880545009431,-0.26991874592750537,-0.2769857940705721,-1.1701234118964303,-1.490551624467976,0.6356116565012048
-0.8849635009618889,-0.71030470969995,-0.754676572131644,-0.6557046543930987,-0.3579058576412881,0.7726629957137213,1.491885856639346,1.1703258505488852
0.7245122902035317,-1.9583268008213441,0.9037867019661189,-1.030185845309925,0.03349255199626482,-0.9593907568600094,-0.21598179575696885,-0.6781294252185849
0.8476797940624451,0.22189889866454685,-0.4607063972460889,-0.1596589451089169,-0.3200483174881236,-0.4763247017501602,-0.7108917193979739,-0.11552262891142552
-0.6701292643960739,1.3057598687518812,-0.13006133001570921,-0.5832555509936803,0.008306711404535524,-0.8330220464731776,0.487669785127715,-1.4627144266587062
-0.9160132399557025,0.5040811194267381,-0.25920626838008076,0.028132149083869996,1.3542818059336323,-1.4798323764843206,0.8855200422734822,1.939407306430545
0.8611503415411135,-0.6634763827597584,-1.0838666881514998,-0.4333169156483228,-1.9963558397444352,-0.6604436698421741,0.33902284005699973,0.20618268895836422
-0.9132410905699553,-1.0869441044771355,-1.2205829476667474,0.24569279188658302,1.608990853202353,-0.07183046229157414,-0.44619804956275055,-0.7042254190623504
-0.34913420047585403,0.05594143346257076,-0.11655180889161833,-0.0756029248763011,-0.17320850125956863,-1.9472396966447145,1.4509042862984955,-0.43984233030439457
-0.04100143185415917,0.015167687668203594,0.8024639629365942,-1.0491102047331142,-2.280391695352373,2.156817794813859,1.6363769602598162,0.09537990520011555
1.3574732493640251,-0.007446143575778959,0.6279362346050181,0.22965721607121178,0.42146263291232644,-0.7823050522619002,-0.5804102226030345,0.5257928919897308
-1.7252967714529077,-1.3344297865374855,-0.8104267667379429,0.7526348202748784,-0.19918393847688431,-0.7048138523753525,-0.6823718992498657,0.25178333668767466
-0.2750121172892889,-0.20625584520948734,0.6047319888302064,-0.6486507629022095,-2.203549858284634,-1.221416086321183,1.4630719091714486,-0.9200250612503533
1.9560346017935033,0.27372132045276926,-0.09445833546936994,0.6048687544193274,1.3472414961640884,1.5955226009376955,-1.149635470309022,-0.24412188415752753
1.0150303483919325,-2.6568950016637842,0.5396291051176558,1.345651495290567,-0.9278298528416615,-0.8018339245791272,0.2492102147127648,1.0811364096460756
-0.7089330970829976,-0.9720806225618497,0.6647345855671862,0.6666630309617563,-0.08461858720041654,-0.9934239458286824,2.3776486933644154,-0.021265701060963448
0.1487511555358045,-1.2740869700718227,-0.054065343743593626,1.5677352111407783,-0.08550272219282672,-0.2558170767101446,1.4298695823434988,0.2526672006044571
1.6172214028293939,1.3924261670057876,0.6011813194493201,0.9330306253559604,-1.7609361482991357,-0.10634944082831929,-1.0745554472377572,-1.5823461881352485
0.44439537308424226,0.09958806294745688,1.2852114217604738,0.9718146911161689,-0.19510613151450112,0.9138413999860543,1.1031503721305398,1.3852540230882322
-1.659350440125163,1.6216222240228009,-0.23443212055224147,-0.16234222340579915,-0.2942625900724184,-0.9378296691145224,-1.2661598807526586,0.20179836618921232
0.42358365513942753,-1.4118478441211715,-0.5147870110439405,-1.4561574395779822,0.1803809875157542,-0.2412381214002329,1.2778565285275818,-1.132138214049326
0.7753732093827927,0.2190486301854901,0.4033715831710083,0.14118212549220682,3.053971185487596,1.2039729003107174,1.1216078410623975,-0.8012524859378034
-0.7937210566821149,0.8484144554957953,0.16245408919421853,-2.0028849040112773,-1.9957013775672985,0.07203171430258633,-0.609671755231217,-0.9703784898256109
-1.1802076476965668,0.5550229421098066,0.3278198954933085,0.33826323620101123,-0.05753745092162515,-0.15103195546412537,-0.5209156822368537,0.1335161335736366
-0.745821790053628,0.6680746927660844,1.0166609617139726,-0.09780025473464113,1.861134753844439,1.391863144960064,0.25878628842148926,-0.5307028495993185
-0.687559939759647,0.29106250547614565,0.5559094780273722,-1.0704459456429927,-0.14693965456989608,0.37787478696114923,-0.9013750976088565,-0.9576600124070338
-1.1418578717229968,1.2501641251798832,0.7568949235128154,0.43322017548011277,-1.270809330058511,0.2142305930308037,-0.7880717205250938,-0.425558281658547
-0.5087399601804315,-0.20492994595862185,0.5250181192985357,-1.9604924617820707,0.8759225442400609,-1.0621898391640463,-0.6070173735997354,1.0293220455284358
-0.6322165290830645,0.5035967547186105,-1.9676656871767546,-1.3568332352650414,0.7232391763058964,-2.0976506570881304,-1.3483122533526286,-0.7874966766590563
1.3146807993217609,0.18393949747947852,3.2766770514819044,0.42698831112354885,0.8643769983446241,0.14462141870970877,1.9509463204480006,0.12837588032738104
-1.922363922481444,0.0015602707791002065,-1.772690007971615,0.19118191773906695,-0.5972375764182448,-0.8039491923049774,1.531613586863234,0.0004188267265336616
-0.17196682755923534,-0.9722129277516949,2.2976295495651415,0.5752052071294885,-0.1822854339194329,0.04514522285242749,-0.6618267766751679,0.5069745928926055
-1.6643049984242047,1.1072156147045247,0.2593570229400826,-1.4269831644764788,-0.354717026974937,0.08723853787564739,-0.4649847552157952,0.04236122395394414
0.8114386428071896,0.7861374218569036,0.39849133144780297,-0.9861485724839096,0.923852870435098,-2.032148428688026,0.008448153767206314,0.5886099839737767
1.1045570841013983,-1.9163411097165086,-0.7498415345234132,0.34301946776780695,-1.4184989636572438,1.0831805517880828,0.34906924141177686,-0.010380663573179912
2.243098172147133,0.9762605091616945,-0.2302412048392493,0.8763328097743823,-0.6627648136011675,0.3307542925909742,0.02747238503017517,1.2989038888111324
0.6224102135691871,-0.9404726290396953,-0.9049865156342234,-0.9932833650789439,0.7116276853469234,0.1806729041085273,-0.7130723061424451,-0.4813942658115104
0.30733126002142147,0.8339996257445484,0.21148462460251966,0.4259440448250754,-1.2020217035185956,-0.05009767328152308,0.09810346824967457,1.240276936867094
-0.4922694772090962,0.12297093840179453,0.960121186276265,0.14851395800850198,2.0023197598134135,1.0131575453535036,1.8732604446875256,-0.4419786938507766
0.4178490774218078,-2.1989850210076587,-1.6326986888785602,-1.6084798262120081,1.1880568342247242,-1.4149074848357133,-0.3574961595711294,-0.3775199940836457
-0.3130930876233112,-0.06428357138282052,0.406328681804994,-0.24167748658063362,-0.11965574997452183,0.9908936851736883,-0.5459263032985782,-0.272711237252795
-0.7457350269769291,-1.3379277411991553,0.1272777918901291,-0.08016801009337768,0.15714585313017912,-0.5368070642443643,-0.9527082100271215,1.2785820857473083
-0.12225576800162373,1.3345174662871224,0.4650954525459454,1.079855768628002,1.2935706925100914,-0.18821262295942398,0.3634174831303517,-1.2109214173678549
0.2044439687037278,1.1730455603304157,1.3220449461355033,-0.06142383587994744,-1.3814172011620145,0.4311109186719597,0.038252016485525966,0.17031677843647441
0.5785780159706625,-0.3088692989587768,-0.37456528314684856,0.8290233405680728,0.43615446274261854,0.5526758356322418,0.3067672917666778,-0.05674197890636707
2.227373072651051,0.11761831298110738,-0.31672956952637576,2.309367044817738,1.119941469957579,-0.6712443155448305,-1.402860206217513,-0.023537342701183784
1.3329843111270523,0.25370990076465366,-0.4621134745821204,0.6425750821634666,1.0376056604084112,-1.0157471564238225,-1.5585415390541075,-0.8020067487626249
-0.14420850802723062,-0.8210818756090814,-1.177987388253973,-0.17279220089531697,0.10192251828931326,-0.13192027135699194,-1.2666653106793886,-0.13677630812627092
-0.8697138065986707,0.36881474126278047,-1.2069134016305847,0.6977663540063943,0.6698039954444674,1.1186154628058822,-0.24984616068064314,-1.5645990829571579
-0.5117247984786668,0.8102799875247063,1.1544052312355253,1.0856713897867794,0.03023325667189668,-1.530750837211153,-0.4181475380796013,2.642650546832112
0.23904468824904762,1.687570196947321,-0.8744973654167232,0.6930094169587452,1.8441408724470065,0.669800765428922,0.44893269668007457,-0.6490103112769914
2.956000043840113,-0.4934130653595115,0.5421258636735978,-0.7458717645122042,0.9475185263694437,-0.5895234630923702,0.9157340573864738,0.38262014474328393
-0.02941344122770486,0.6722857513633418,2.753771168981317,-1.796176363450072,-1.7158321785724748,0.6113888335204622,0.14295118911422272,0.03638539038622698
-0.6860482523379567,-0.3724194838391119,-0.7043640352347192,1.4832574516878554,-0.4760003246423164,1.1824306714383055,0.42073174209389946,-0.45140299600767064
0.832438822506081,1.0234737008586878,0.9967469312672919,0.9427853832646992,0.0009490970104381368,0.3356476490784377,0.1617420136570602,-0.775627210415128
-1.3286066738118367,-0.01950814460626737,-1.2371572782705886,0.70403342424227,1.4300945582748683,0.1668575978279443,-0.5276126029508467,-1.0986668862998519
-2.747987864165001,-0.691751785227371,0.4352453979807732,1.0918820237740585,-0.5682604026830009,1.1306115378277672,1.5290317601546615,0.6049980710066338
0.9020952374241056,-0.975178160567892,0.7749395182399291,0.051960707065044326,-1.459356105488576,-0.4144079021134071,-1.0020691498196623,0.1247557836657707
-0.7232636500758437,0.1436893109111028,0.9051955619042991,-0.0275232999601422,0.5801468611020327,1.0534456815110178,0.661897269619197,1.7450402895024977
-0.29972941158778543,0.8386017938443783,0.3720444857264853,1.6109448100000543,-1.410470378789044,-1.4275109570653173,0.7223502984263358,1.6691498031158294
1.0087875601952876,1.7343273555664975,0.5787116910167043,0.16661104121853687,-1.697431626246721,0.15473330237948973,-0.5029706310960398,0.17336390212830632
0.4433085516130437,-0.28543485744659697,1.3982338470939661,-0.16069657439985113,0.8311663019449723,-1.0735947223914575,0.36397362940062705,1.1555861919265313
-0.7621044544062998,-1.7030445026565748,-0.7162677776830189,-0.49582545995464833,0.1926085817803135,0.08566380153893469,0.22023399797252635,-0.15850550613176972
1.4133780682356674,-1.471905313849979,-0.3617715001872284,0.9923084855281925,0.13309466956450303,-1.0404284448889722,-0.27828916484926647,0.8577789324226407
0.4649091778109453,1.1274529240497884,1.2264502491929647,-0.08379434820093377,0.496752054299918,-0.9153230316963514,-1.4243526863018423,0.418946723001555
0.5335811954866618,-1.0165328448925552,1.9873782888315983,0.577513455892429,-0.5847772806659662,1.8614465653457781,0.8328204073159732,0.1781532208393095
0.03851291651272158,0.15330069919539485,-0.29346929437289987,0.5134790930221278,-0.23421235022404793,-2.8847365943691865,-1.6636482039204055,0.31145776305646306
0.6320162003971549,-0.5728757136059935,0.12391309440780937,0.14758669186143994,0.6418754339275898,-0.6808693277888751,-0.7657997176898157,0.3811381015650613
0.6123971299210575,-0.4417626828838255,-0.3335717995085404,0.3673375228203987,0.3065206376774619,0.8015665235506008,1.0619976841143495,-0.08320953958628088
1.6034002326657508,0.008092281542104647,0.12627207894347323,1.649447672759305,-0.2712886551831186,-0.6287799769462603,-0.575796936199329,-0.23280903698232627
-1.1127569189768136,-0.00883809722309806,0.39180365476707246,-0.5006041865303124,-0.4997167248533437,-0.48362231579958365,-0.5902336241538966,1.5182985628714953
-1.3522878274762087,1.2501850949299038,-0.6097296005738474,-0.6849204172380223,-0.8781307841797479,-2.6570180685926,-0.28016792716588884,-0.08616466509583671
-0.9084575516576866,-0.7362070124290905,0.18790611326427412,-0.3939904916737248,-0.348937376857065,-0.6655968266001497,2.0796807099780747,0.855049335211324
0.6483998704551618,-1.2277525985225515,1.6085763090506087,-0.06689983549873633,0.03692172334075134,-0.06509981980675587,-0.2514042672449841,0.8437512314943894
0.6849596712481902,1.1939170591405972,0.32590783012849084,-0.8946828869969685,-2.514726468298841,-1.2929593078004045,0.8511235182960821,-0.11227125400656367
0.5393828974589937,0.9478013788627945,-1.2659333091047607,1.6921147758108912,-0.8951604538170121,1.5537767103254596,-1.8448033421685603,0.3765958939404061
-1.303410503356711,1.7593585168698431,1.4130481099929937,0.9694838928870602,-0.4762443746676137,-1.76490143283434,0.29901326870253514,-0.5953107285126739
-0.49122029811286927,2.13743642762077,1.4753634564368021,-0.45973869754544483,0.03392935651013459,0.2434859671816548,-0.7654323262930974,-0.20256145885495472
-1.1332988724245496,-0.9823382785044815,-0.2366268363867828,0.2501538751369655,1.879222052725348,0.6732357434822772,-0.1709192120035679,0.49832558978752767
1.1670541906880316,-0.387732626123633,-1.744512424154799,0.09807773447736375,-0.20689453819628653,-0.4017959377656867,-0.5717787221497859,0.9427836480916553
-0.21389435292717485,-0.12676983109934492,0.8926700223059257,0.6032495949008065,-1.1482948875813297,-0.13452228736114513,0.5597552301740112,0.9384130167049451
-1.1089104414298714,-0.3932958934495914,0.5203737057952101,-0.06285787159519751,1.0729300402429698,0.5965998987004519,-0.24410279249961525,0.15557320273380862
-1.4831105370601387,-0.6767316564562724,-0.5196449154682272,-2.60631338121716,0.35282397683373296,-0.23427484508570842,0.35940704372784993,1.3655531748530687
0.3874480400887532,-0.005148893085830818,-0.05326472054659989,0.18063485748037722,-2.068510806057615,-0.6008369551362414,0.7524705686804207,-1.233244333242871
-1.2724596982068435,0.967723332397127,0.20793035284728045,0.14292784088013347,-0.0192134761714157,0.48864552441738235,0.691630063000143,0.3207206656107823
1.8301614586970993,-0.036335571336845646,-1.2282417280280318,-1.043666038847708,-0.676448076806388,1.48202499182041,-0.06031460744428902,0.20892369662404495
-2.105951329642338,-1.6782834580787747,-0.31528493883911035,-0.33754010446651694,0.06130258805129515,-0.05930022013816636,0.3569082352703007,-1.4317450716392368
0.8890013204430858,0.02792748060003582,0.5655269690787369,0.027479985633419746,-0.1681876552187671,-0.35440032122619547,0.46950590677292475,-0.8802015213006764
0.13045876191959146,-0.4134256549640493,-0.5817728586333596,-0.11828051604942684,-1.7330618497823576,-0.9498800803209736,1.7004227086760821,-0.35944520294867527
-0.5595831048437327,-0.40220979950742564,0.4241438072256912,0.030555290323924306,0.8273754444338204,0.7786876128080589,0.4509416148835482,-0.9545186033733527
-0.47269896275880835,0.776231081272881,2.0300672142938674,1.4746710179905786,-0.05088554687262592,1.0186652435706742,0.1329374223073297,-0.9540171772104988
-1.4063470292180043,-1.297652480433504,1.4350583436933582,1.6985420845129082,0.38983346117007867,-1.045137707892777,-0.8065355519181381,-0.3531333966832226
1.021878664987403,1.0688749745948147,-1.8369862033958502,-0.3385195833207439,0.02608215656167598,0.4089897823573429,1.5870381777526659,-0.0728760027622357
1.3124914936650285,1.828655725228761,-0.0786829283416253,0.48527243743044546,-0.6078043355027322,0.41965825819120084,-0.03403959136314053,-1.257150301874392
-2.2036898331591717,-0.5520644002197223,-0.3892539608771222,1.4619592062916535,-1.0835697441191756,-1.36648083189862,-0.10423917716040712,-0.3078853579054071
-0.1504287541688995,1.0597360863539982,-1.405178881970615,-1.3734735369986117,0.4267826089740147,0.7674305743785529,1.0712829955219705,2.132586602825313
-0.5494299459532423,-1.3713696186593167,0.11839357210041984,0.9011646595299379,-1.4402504118664337,0.9190295014296919,0.9976176729328228,1.1481381164868283
-1.3263583441973714,-1.5316569038250947,0.9135299744753236,0.15374731198700062,1.3884046308971802,0.9103858120046937,-0.4336691310749021,0.10015005828519305
0.88271845983732,-0.15198948348373617,1.5757569005204173,0.04569755601803965,1.8269935222800415,1.3931329234367615,1.5588192216460592,-0.8154306315615548
0.6011398018766778,0.04775765328900736,0.2840395932674761,-0.5142083562047065,-0.9879591543096558,-0.05603325102277993,-0.08881335099299804,-0.7377817315865314
0.006521542582874559,0.34020050336798824,1.1279698934110924,-1.8666300327662713,1.6364326143601997,1.8701728051238455,1.3240547000953513,-0.5098916128792813
-0.8191821362419147,0.7806032379160804,0.1689699732887162,-0.7917165559808016,0.3690332734678224,0.40264125421652386,-0.26466270435622646,0.8331064689476319
0.42458163042813796,0.13719665187328728,-0.14578367187122143,-0.5437542285119102,-0.24909056199112167,-1.0822071251149203,0.3644085940593783,-0.33860749368248977
-0.9619689977755493,-0.03302660690823904,0.9242831399382042,2.529305480585525,0.1428010863082415,-0.874615105861236,-1.7264619111712134,2.3268214316341087
0.19311210820253671,0.8163212047452547,1.1787185945562937,1.2624296159647308,0.42129075099992236,0.3134990033180872,1.5729507960697309,0.751932431019295
0.8701888144222047,0.09879444325207279,-0.93399272257493,-0.7655777391943012,0.5954987638811281,-0.7039527308649668,-1.687896996321839,-1.846110964660428
1.321582804305448,-1.3508889807531812,0.09286430358837731,-0.24200095170265198,-1.0426101016509968,-1.1391152814588277,-1.4431225867977213,0.1680650514023299
1.7112186471392068,0.8241426831365679,0.4911050587131747,0.39448942438159235,-0.25753369577655555,-1.370537559763872,0.7473641568261741,1.2116170276060576
-0.8163910974341324,1.3130636683635266,0.694765260968095,-0.7279052758797385,-0.2728282865608224,0.2291243737638606,-0.6173242545034129,0.7927417713716328
-0.40274517776399316,0.7709599417637092,1.999454552826281,-0.7643395215040345,1.0215430942279529,-0.936018299430697,-0.32660452184217365,-0.5512222651013858
0.4100759719534347,-0.2239948469750918,-0.13369382055488283,-0.04102362043676534,-1.861030243465343,1.8973659948207224,0.5209629946412526,-1.4955881505112434
-1.070109755326312,1.2379785477804948,1.2228722056990382,-0.9169569279372334,-1.2467619341858458,-1.228215808039155,0.5094396708924752,0.4766566924570469
-0.5473114375406005,1.202907294760723,1.2283853564583835,0.9548658608111606,-0.9543136002360592,0.7739459993166663,0.6454305526216089,-0.775868187471826
1.0886635341506685,0.46203212586578496,-0.7137756752583918,-0.18543962930154342,-0.045743241692351375,0.6873792515229558,0.14908712071184327,0.4235575038400844
0.002391530240268969,-0.10466819926613266,-0.4900731477285358,0.8165155122412585,-0.36066391903239886,2.451823842556529,-0.022249946414427606,-0.24954011500888035
-1.8140106313649689,-1.37717586732405,-0.6311700077359883,-1.4044981238380774,-0.23766051601546218,1.7187085717214667,0.13558269006762053,-1.265711910200838
0.15932224158227823,-1.6696100394433804,0.25006100761726563,-0.724742194703992,0.25316487869756965,0.5735248067037502,-1.2120449712143788,1.1692338638376196
-0.4627032768463733,-0.12793966159262452,1.0172475598297566,1.0120607461755429,-1.313462848294655,0.39776457697117845,0.9981575406866144,-0.4250947702631432
-0.008425366670435636,1.0270768764210765,0.6853000262331579,0.8227273838510062,-1.00007780999183,-0.30620182800955453,-2.0154885854641122,-2.7583387203354373
0.8817369275943077,-1.8780574221160564,-0.07682287034036507,0.3406402540492909,-0.30256751062372694,-1.0187701075352802,1.5303982291124372,0.8456793377472941
-0.32441879978782356,0.6469681144095877,-0.7631728452711567,0.6031493823650319,0.21436450824060968,-1.376007899494592,-0.7547556076087844,-1.0267295791119448
1.3385885798440302,-1.4718803045073587,-1.4904250024523866,-1.1911307016459396,-1.621725410464248,-1.71032642532651,0.5926351474052566,0.19840576236953647
-0.5446100086702732,1.3857858246721402,0.5744333694782494,-1.5086559546401686,1.074147470207511,0.21768853465063975,0.32691363792896355,-1.337089517981196
-0.6468082836020659,-0.84557303558828,0.43682551408787174,0.43200248946235775,1.696374347181531,1.1152343712323949,-1.485176977334012,-1.1796730349957312
0.06790030725698931,0.17425807680308109,-0.9043184705940495,0.8684362960601162,-0.5234819302732046,-0.884217867712982,0.2422025823806215,0.061215188168847016
-0.9916403084649176,-0.36198638760491186,-1.839079151514449,-0.22083489733477982,-2.1772347412388684,-0.6134112709703953,0.37138917416019007,0.18372235350402447
-0.9235090915848359,-0.3950523849532883,0.02569111655417789,1.9138352154163396,1.0898513834050962,0.28323661545365825,0.650771635948789,-1.5369775958721257
0.325620143811841,-0.5602636482344435,3.129823364796883,0.25357099167242036,-0.6129091517469206,0.9023393878140099,-0.09157236965948916,0.7899308647594326
0.4856907554190469,-0.28060413826763597,0.3718631825677208,-0.29466941932940627,-1.4133857544212298,-0.32746063676452697,0.9462483291258835,-0.4562281272329795
0.6498439473348825,-1.1999815367009052,1.5009392587219779,0.36000657890290505,-0.2375596003793548,-0.13487115576178968,1.5217072698467011,0.8375531194559952
-0.6545180219891076,1.1839220624921358,-0.2393646389074373,1.04165027836789,-1.2185615212886127,-0.5076390201699102,-0.2968067593449512,-0.7535559769852395
-0.3751869261601787,-0.8334950057781326,1.4700293047676702,-2.266875326010387,-0.1416620009198,-0.25835039558349565,0.3057167747630575,0.0634726218537051
0.1441439669320806,0.9517555340565771,-0.2573001323889004,-2.297954687325852,-1.077872242223336,-0.7165831816521565,-0.2667154736288589,-1.8034663069194217
0.7452951804825707,0.18962481335168654,0.1257537319630632,1.6778091791233152,-2.0900690782328395,-0.6315346327809053,-0.34004318941414274,-2.0234177324292526
-1.194528225591491,-0.008229858550102966,-0.466547236592014,1.7857473296124031,0.371629580991936,-0.17935687558768063,0.4586785757769652,0.4624218988673977
0.09245048332212356,-0.8215371587771656,-1.180628705906453,0.6527127474691686,-0.8995355008611943,0.6565463653536052,-0.3554797195061805,0.6869180975146857
-0.8188635217497834,0.5782252633306028,1.4625710354053196,-0.301367631784338,0.3922971966370508,0.5973106994584394,-0.8797120899730941,-1.1756652979123974
-0.7883816291188616,0.4865241774024196,0.5431261997783488,1.9211066133381343,1.1067314873907226,-1.1168235337704362,-1.1462886222907742,-0.4753593372636193
-2.1152829894721683,1.708300581917143,0.054120707888974794,0.38636684375905284,-0.8020738339537288,-0.8143504848588164,2.198309326179563,-0.9832476109677326
0.7421386140661951,0.20975507073225882,-0.35208033328343163,0.45946844116693286,-0.8809949310378444,1.1897105457104402,-1.68106480500964,0.3093336406948861
-0.6553191222802762,0.8553207033202836,0.734974893684418,0.3215724972201861,-0.5528944802772154,-0.10181643279554226,-0.30991835210179974,0.016310659197124468
1.2217070206474854,-0.30028486599035364,1.1444938571767231,-0.5999733467089423,-1.0358273018631945,0.4408639686659678,-0.3590902676075103,0.17262187385580866
-0.06909052769828236,-0.3832520709909272,-0.19685027860199633,0.18019634373181845,-0.9131208325516251,0.5955875766602554,0.6693067764994117,0.8543929443930504
-1.0045814957675145,0.07325107027567529,-0.19300837724406245,-1.5064070611372558,-1.7745000061023868,1.347692494443717,1.0571195160670346,-1.0496441343415475
-0.6769839729175998,0.09766014537995349,-0.2793385848266693,-0.29346460271188873,-0.44175263044378277,-0.4733679282198395,0.37428491309976053,-0.08640529656942968
0.5156881200908032,0.7621245756966066,-1.8420916286196243,0.6622716083754436,-0.7121256401575307,0.3257434517846389,-1.0335492623750806,1.17929168004255
0.4673055510608563,-0.559086968600046,0.3060981011618082,0.5590334611043236,0.06221951222270238,1.1901479839777742,0.5051051274487057,-0.6386342249610172
0.7910381444388083,0.8062744786236853,-1.7768652401866363,-1.0002829195845284,-0.871140757692009,-0.2729611445885018,-0.0752814249987179,1.7974765780357957
0.1953198184789052,0.42870051598372166,-0.34321672265925085,-0.21617017503661248,0.1872834536147244,0.9519700230914759,-0.3903799966281829,-0.9037896879597253
-1.7862277738829182,-1.9248037620231864,0.4200542394115488,-2.2974275719668817,0.6802161229802959,-1.873983660182956,1.16443540306394,-1.6726476688658602
0.11692213901851713,-1.7000693464801138,-0.6333951173474899,1.2811629475747524,0.38873526660572816,2.1303634825171103,2.264954750450089,-0.8935440504191797
-0.8614267348127175,0.4262565780033757,2.4155275796694906,1.2644935007242115,-0.9927658210082738,1.8949490610404927,0.17220654872858038,-0.014389574009692726
0.17727651243129522,0.9178071518592479,0.10032889722091606,0.08296439484313889,-0.3012813813274205,0.9834276574957098,-0.6118485530146299,-0.3370544501768753
0.7621063660354487,0.9107459259715952,0.4247055141857171,-0.7992625168088837,-0.1433350889675172,0.2651236208459257,0.734526836398106,-0.972910900121792
-0.7496110251239977,-0.6929636558458894,1.4011192657666183,-0.3271827299908423,-0.4455535060022101,1.8419607845040449,-0.6784677798068397,0.2848897331719639
1.1037995657851785,1.1042521727200691,0.3833389547276314,-0.34724523354715003,-1.0566946504013657,-1.2054587414497564,0.0006354653159567306,-0.10866766982884406
-0.7937616135646015,0.15234589657704492,0.15714933670124445,-1.4459094969611126,0.2866748263860566,0.24709165388236892,1.6425282085100321,-0.3303279120632453
-0.030083459231740172,-0.21206279086085544,1.112049188757415,1.1598064671835433,0.3330554581411977,0.21128957259720907,0.4719865863811147,-0.9758466509182091
0.6730947735684751,1.3400914909663673,-1.4598697976328754,-0.4017059541596561,1.675326412433194,-1.08478565353551,-1.388208186665313,-1.4705580280007358
-0.5598937159312742,0.7781973456803045,-2.0328909238462827,-0.024738971381826496,0.17189214256183533,2.730472328734876,3.3660790359177724,-0.5059467765647389
0.946430797729681,-0.3549491879390537,0.5877598065878837,-1.243172049012779,-0.13075590394362557,-1.0536058061837914,0.24272545244321422,0.3225723623642448
0.009343335967641992,-1.0513613560517145,-0.43204716421609884,-1.197882575365454,2.0312863146554534,-1.8057841339711593,-2.303917638359313,0.5552277551063979
0.5308541374665865,-2.824847075722008,0.7916984916104346,-1.1251823061645911,-1.94106111985484,0.8657331922961213,0.6394116937515922,1.9770132473963702
0.5375578177327712,-1.397046310014478,-0.8347815486630772,-1.6967326621187286,-1.7426633304542194,-0.6264376981933812,1.5002980324696944,2.263949143776819
1.544885002571741,-0.3105826297482001,0.16943446851387425,1.100414771577747,0.8587587982964671,-0.6416306366589787,-0.28948073469244306,-1.347994173403902
0.5048415244349316,-0.5441467231298007,-1.1390747505588106,0.30027390586032104,-0.3569697392470692,0.31296888622651525,-0.9393491260192625,0.9406081956317168
0.4596992717954928,-1.1917877525122054,0.9102087032672966,1.1829755102869783,-0.3905571350792499,-1.8028330529212981,-1.3636497938296912,0.706274488460732
1.0371055618536411,-0.04254153521604214,-0.7289476317590385,1.098538822798485,-0.3578623536252486,-0.1676180632450559,-0.2711194401475859,-1.038708289002783
-2.1049047058936563,-0.4942659147090883,1.381372243905065,-0.09480872827476068,0.30321738433767026,-0.5931738235488137,-0.4043641899226331,-0.2341283460135152
0.6397973245878926,0.050043109753211384,-1.1358760759266717,-0.2995455634228879,-1.3607188806402597,2.2534062322291137,1.5472723848829721,0.25878309733386456
-0.7769806697657655,-0.18098478711003882,0.012829799043472838,-0.4377582556566765,-2.0277544854292437,-0.16091864772175715,2.1364102515329906,-0.18104893890360504
1.2362048015392628,-0.54081113743809,0.6813368888252159,1.1998180272692884,0.3563381219799719,0.2711527462300108,0.5251059104608513,-1.3006502078704012
-0.6073148866589515,-0.6842997077073311,1.1785442319689605,-0.5322598959328985,-1.5234159535972938,0.609819274672986,2.396297974962992,0.15717124030836938
-1.643456262289486,-1.4693364818718324,-0.8272107436038425,1.2727092993432905,-0.6525538095209652,0.42200817699424886,1.028618528156396,0.426206101667267
1.0112123807896107,-0.6314118276730494,1.1286389125918497,0.5150359305027964,1.437175385591092,0.07886483377613634,-0.9274874907542657,-0.7753094498424608
0.7812115242163039,-0.23794494992781678,-0.6863563117275308,-1.1292017602039077,0.2918623230813411,-0.8791412921874776,1.494037454932415,0.27984573525811457
0.4078105306317714,0.18302472156501606,0.0017216885857875984,-0.053719361033673176,1.9479698329755772,1.5580663920585307,0.7191718132986564,0.13714150976632974
-0.19474561527041678,0.5835112177423707,1.0018449088444905,-1.2613708733687916,-0.6084000142078618,0.9189619040541958,0.806321807950932,0.380984353759048
-0.2876680418708789,1.3596091563348636,0.5024334535345686,0.032579964588251374,-1.0877184911198,0.8277684238646039,-0.2949513667808774,0.12303999874215184
-0.8503865056756185,-1.1070608927315313,-0.4752083862959708,0.3163933297629885,-0.048596115037221985,0.13094151976714247,1.935839095371887,-0.6839629690435758
0.5279058340353532,0.8889841208301436,0.6886249573421789,3.01715374228639,-0.410076564473723,1.1384299159225864,0.48178342077917063,-0.03396111202856411
-0.559424771171557,0.05548670836900166,-1.2218747635717384,-1.6822801204821205,0.47796300629585875,-0.3203981481069388,0.9970763154077786,-0.6975621716400546
0.46285465602194725,-0.9017074523531865,-0.17879893632646401,0.44403875713805285,0.8225897318889315,-0.27771608882148063,-1.0385079486172164,-0.8521175023984335
-1.8580441652680693,-0.6807624801735801,0.09701995281903368,1.2938657032825156,-1.647169467075146,0.039145909774356384,0.19899948021843114,-1.6499503633968855
0.21583201901732402,-0.24586290877265846,-1.6690804945942763,0.6760412318667618,1.406204829820161,1.1661913160294821,0.562107759728781,0.6330288188058175
-0.05541193819235662,-1.9106592124505226,0.9554821627155774,-0.9351767744407508,1.9552961685512982,1.831942403496274,-0.5059147600031496,0.2617949478933525
-0.15722503939063756,-0.588266848216045,1.773472973634148,0.5040970544231359,0.8011626248302587,-0.6351060429165123,0.11673115484309803,-0.697459388296739
1.1092345000818722,1.3602483979814657,0.3399051909763985,0.9626732171985705,-2.2918232519984363,1.2163951777112338,-0.2819718480390528,0.033393955363162885
0.917282121885777,0.47734220049034565,0.6754456494470634,1.4915415221986652,-0.7434129829409166,-0.4110035205657496,-2.732407726067003,-1.8160687367761372
-1.3959341563005707,0.46361973713285376,1.1419990912407612,0.1727726008853109,-0.12743279305016864,0.3901484018719237,-0.7830715665696665,-0.04159746646274764
-0.4755968344956371,-0.13650822338594185,-0.08768222754802445,0.8276641786550114,-0.8735703195266169,0.8504256709811334,-1.961482436454336,-1.1532246414226957
1.6669047193607802,0.06351438712461373,1.3890405267858612,0.48913019463925367,1.470734825867705,-0.0560504318280931,0.4021959366005133,2.608971814668778
-0.03321421655605553,1.0154864144987223,-1.9391616641732452,-0.6793227450482948,0.4573372607817777,-0.8853125441635309,-0.6978571016158016,0.8451766495147877
-1.2467947138979982,-1.1270751363419407,0.8850278425531791,-1.2958966788033623,-0.16823042880077493,0.40758425176213314,-0.40485352728521223,0.40021011702419895
0.5636500182938494,-1.2507085323138574,-0.3123115132869526,0.450211939884262,0.5370373540318237,-0.025215685139158242,-1.9860461000763985,0.013694512578884823
-0.3954816122518312,0.9156069203631146,0.4202147450130104,-2.01610470955805,0.2760102474254609,0.720599503968163,0.01683322413654678,0.6072664914751411
-0.05748165545139016,0.7033662493089544,-0.8784825045526975,-1.4358430709603593,-1.1595607905821579,-0.0165224008783392,0.465957964934035,0.8453750148615178
0.6255684528864164,-0.6235635636644581,0.006115911921162721,1.108942884591071,-1.7276477698750363,-1.032488306968884,-0.1560553861653055,1.493990508741523
0.5882009835735615,-0.40872601394894603,0.44912907422895026,-0.18256645872874078,-0.025581316307274258,0.7427715001711134,-1.8111394833321244,2.147558149418145
0.7807181184214111,-0.6227708043359979,0.39556971531057844,-0.38499066059445575,2.0260518359795325,0.661553233403651,1.0741910417331553,0.6417006702359542
0.2012842230292231,-0.39788058907994106,-0.606702044675935,0.9175974372746176,0.08385018600139282,-1.2131384630286617,0.35441142816725335,-1.1480164149426766
-0.7066087575171651,-0.06240047278757591,-0.7534026792152803,-0.2348414312741571,-2.0697838537412943,-0.43085963882011286,-1.9360710188175336,-1.3275714454022898
-1.4406851670409246,0.6992442806557482,-0.79453635895555,-1.2611161656898742,-2.2012392781016006,-1.035739225275783,2.501622351998081,0.40638431780444784
1.0817824259283222,-0.5705844502423043,0.3248012290275457,1.5623356970490525,1.4856361219223722,1.4303716673676317,0.7249618262023433,-0.49146501542506815
-0.04452687624795133,0.2898010264726784,-0.26495569663987895,-0.6132039128968887,-0.8180569682863178,0.1505913008271666,-0.001278020098224467,-1.9257242910398993
0.5578236304982405,-1.038577405946693,-1.4906667018304354,-0.4640744732428294,-0.4342943398731026,-1.1011407980545667,0.07792555536515158,0.14845323657368276
0.0740729957935471,0.12380971619324105,-0.3031103605355473,-0.5621977047517788,0.2762903607173114,0.14623853345283996,0.23434096784422176,0.933662917045451
1.094590185863198,-1.2094346142943864,1.7622902541525458,2.338345746694102,0.3155078508652142,-1.2372107922543583,-0.8226293205791807,1.388869394711162
1.584382713487941,-1.6444294354033455,-1.8068283121358413,0.7000017004807182,1.901696943855036,-1.6430954238515252,0.7308599739094418,-0.22198694452174034
1.338032141270366,-0.14917371034842197,0.06722673768178535,-1.3942903373862634,0.37693688295210376,-0.27972699036228005,-0.8246413818583523,-0.3984207091004779
-0.3744213479203549,-0.5067474539223054,0.9120440502027268,2.081440921286124,-0.7788926776464101,-1.456527165652823,1.2479660992935344,-0.42661689001766756
2.7735539581327298,0.4671988656996474,-1.36138770325312,0.7055837994797438,0.23355200191563716,-0.3325414027151765,0.21235779435019025,0.2478430759023671
-0.9654703776913005,0.17967561329624623,-1.3043771519982448,1.683045211631366,-0.6556756269298368,0.9271636240097433,-0.8389719077237839,-0.2758981960611747
-2.7432287551775505,1.167588261019922,0.3732284463875733,-0.7006647442213365,0.4516051528659548,-1.0330613030091755,0.5181299546995282,-0.41788477760867276
0.11806373467694802,-0.5274836381130212,-0.5244704240348323,0.5655056415319045,-1.415007692001231,-2.34042103450364,-0.7727646001897966,-1.1899256629035906
0.40745254069410125,0.8950183373618089,0.6606583661380189,1.5574690908948505,-0.8893838135464777,-0.4526868953585255,-0.1643064290500916,-0.8018508077938556
-1.1868260660720764,0.11107424248692303,0.16696495380741527,-0.3403314735656721,-0.17661887946085322,0.4010773977525764,-1.3476489072563747,-0.07168099138052587
-0.8185754522826223,0.6964395421231897,0.7372010333077655,-0.6559731307661745,-0.45670336675082934,-2.2071525751934535,1.7093765342871625,-0.8948433096913497
0.49537142197547634,1.3291084493463143,1.2181314980488713,0.5353568628745686,0.7730805960000039,-1.1756693850409696,0.520078773423469,0.48900075444822455
-0.14294777687628346,-0.2888174516374107,-0.036053704156645335,0.35575131232176466,-1.1646978024466632,-0.16891428307771128,0.9557537130264006,-1.6855751625155138
-0.47358922837892586,1.2280467108341997,0.14841304914667375,-0.44653478876716374,-0.37942211713406676,0.7436693252034511,0.21931897951466367,0.7108943203335376
0.08469056409858687,0.17814819792548267,-0.40501495299933854,-0.3734386483803586,-0.27312813706365985,0.523258665783427,-0.2446645473818627,1.387110376380916
0.4833409225325472,-0.26004199408877576,0.06328862805956458,-0.9344148767536635,0.4269197989248034,-0.7915891701199602,0.3780322268864442,-0.30473804055547826
-1.2257262797585486,-0.9006748967772177,-0.38273700844486147,-0.17177330610279518,2.3665924571629535,0.9695841004280179,0.8802053134982464,0.4346054202524934
0.7841179349952467,-0.15730811358084915,-0.3453563533652939,-0.578812410929971,0.9067221737216825,0.9302978079748884,0.3990133463482694,-0.36776111005232515
-0.09572839866810057,-0.9679424523787774,-1.4509033668443254,0.26254395832863486,0.9347268335298345,1.025617580537035,-1.7697433231090047,-0.4582078092304794
0.3764627979639047,1.52180957926865,0.9903985371323083,0.9485567792513353,-0.5921118566150029,0.12694347517989152,-1.6974407847044453,0.1218451857356547
-2.038456680430295,-0.638349089540976,-0.06142275643479343,-0.08578994802708392,1.2219342753094207,-0.6073226868340595,-0.3060191989226439,-1.2812852727325312
0.3040532407960699,-0.6767077075359763,0.5923422050335423,0.44763736303523405,-2.4564738650092357,0.09926474971356795,0.5995147764625655,0.8360645480553647
0.041377111598712664,1.3632504123092524,0.3337852849544542,-0.46152386609953205,-0.39247205533523144,-0.5167488135098023,-3.1938985233895774,0.4710614478912981
-1.5945640625212953,-0.5706373873881944,-0.28171356570610595,-2.055876181422387,-1.9536526196675836,1.123962504431978,0.1740128335495251,-0.1141985658310682
-0.28985710875874177,-0.7861886791956884,0.4819883608826785,-0.03130923807540364,-0.31351236383081493,0.21673434065521105,1.0486520090777434,0.11312520450357556
-1.0011309784489641,-0.2005975294664549,0.5439722563307756,-0.021977374694391923,0.3432201314907353,0.0019736669343511726,1.1473352259863558,0.34812937688299633
-0.6609163341930021,-0.6291643379778847,-0.18972150318891312,-1.180167702647215,-0.36886316894624926,-0.8519764386970262,-2.2783560248214036,-0.9175337203155501
1.0692765925992191,-1.7070323414337427,-1.1132606817575952,-0.34378149445767053,-1.1699858866623247,0.27490726596817056,-0.9075115862427965,2.4617156428350535
1.6120110966766927,0.0017308083824591836,-0.4983490848283325,0.7201994406829706,-0.8698518737585631,0.24036037220324682,0.3229819173708672,0.6517156036258079
-0.1848633482322221,-1.2981683836187272,-1.2146483162848296,-1.2224075226122173,0.5958869965128792,-0.9975804140444821,-0.9027265724158003,1.8743649414628127
-0.0796965396059951,0.698860070287293,-0.16352882269980212,0.38631695707527447,-1.5396410149746342,0.6080445064104869,-0.4693892674433773,-0.643795906527839
0.5554443673663171,-1.8278387566772536,1.0586745018667536,-2.972749522404288,1.1530975663057548,0.7401956037710025,-1.4056245884608847,0.31834677550624957
-0.7749157044349686,-1.4194177214448551,0.5639144332864312,-0.5475625747905387,-0.007853621980350594,0.2953999389947859,0.133511403170039,0.7198099870815443
0.968345549492245,0.7683804294039781,0.5614859210501525,0.05993236541906133,-0.6981946028657269,-1.8141410700715443,0.12093892372825925,-1.394714589623659
-0.48342504805305725,0.32998236876183146,0.11574366881839372,0.32480320317543887,-1.7408937654135999,1.7584992978224745,-1.070881437318741,-1.2332012544524893
-0.35907410276658064,0.40448205172069224,-1.3934333415004376,-1.4272518765655513,0.2649584546331375,-0.1265647661075882,0.07384383569865144,0.42361635609909926
1.1227373820967912,1.525897830889812,0.6327420803008801,-1.9890060792166402,1.9354733316101724,2.5071152554825336,0.440637289109308,-0.1873709066827407
-1.821581872539015,2.1144782518195857,0.35704871380181713,1.0580304296495793,1.0050097204920405,-1.6955998382931938,0.4219998423707389,1.2295692605115884
-1.4191080269672494,0.08218209973530101,-0.4147473418217709,1.8793695547270484,-0.6635437532967031,0.7704192048009418,-0.512899585193754,0.7175977946117396
0.6939173253995657,-0.07077637091687437,-1.5640281075038143,0.015504321519180166,-1.052087761057225,-0.7167257427399362,-0.2532399778094834,-1.3521177983903032
-1.2380441361420327,-0.25096990091481974,-0.2672437482352961,-0.038938449918202764,1.0683073722799232,0.8695278180094501,0.5448478308496248,1.716334991727993
0.06524516142884007,1.8677287184318474,-0.059643236310450806,-1.459193923965903,0.8641794610511889,-0.5116851865361591,2.1923135277329378,0.17117063055816648
-0.28708223875802874,-0.2904287603274662,-2.313061713396313,-1.6966313480565827,-0.6488296010520677,1.9447697801589452,1.6324981954388371,-0.9804043022318993
1.549860779320967,-1.169071848995411,-1.1096102326238009,1.7859701221475712,0.7267319354518118,0.441972556249399,-0.6931610273869202,-1.038667309244821
0.315220937353613,0.5249357635807606,-0.4440019485275838,0.732980300180308,0.38334699474208556,0.6306301818775573,0.014710332083635471,0.49198178142640875
-1.430114045855512,-0.13872225378135392,-0.10438007020122068,-1.2237502823882938,-0.2054690250025279,-0.6989865918705138,0.10146247540438051,-0.7074880630371687
-0.8537919978385584,1.578073656215101,-0.19395929359667158,-1.0833817503620526,1.650827352048406,-0.6301087984759296,-1.1433745471833112,0.24052543717949632
-0.2630520878146296,0.9756649443787214,-1.0341960350876684,0.6566363264971893,-1.4720760015901535,-1.2699148859995415,-0.5923592134131604,-1.8964049745607012
0.5075312515712171,0.5676608279704585,0.13178131313638164,1.1250852498027755,-2.0986643533314155,0.613698832992395,0.723215221044826,-0.4981736200371566
0.15250781557781795,0.019179805600886776,0.3956556762251081,1.634942241695588,0.4450770718826373,-0.33700969386739266,0.012752492978428016,0.13748800207803344
-0.5733426396885294,-0.6320116161777634,-1.334847783688827,0.0956543498392563,-3.062891824715294,0.07148356577446917,-0.08754843873836789,1.414629698179523
1.0984166597838634,0.8606137473575807,1.0577597251087318,0.5109318084263034,0.8372896969311382,0.5683897284704142,-0.06877049035098151,0.6986989754162041
-2.1523693021269508,-0.19761756230434097,-1.1559460173757494,1.035324115385098,-0.4629173306903779,0.612878785503692,-0.21744539828809126,-1.2071842904855865
1.221227830660985,-0.385249646688216,-2.270978365889859,0.22763970619199905,-0.48789404644192946,-0.8184774932653426,-0.14575443747051495,0.6119142074648265
-1.0537372512983842,-0.29822091196623973,1.1131635400838458,-2.4817821344992845,0.161174434707507,-1.437428264822829,-0.8806046126782013,-1.2135650215168579
-0.1589284843567228,0.43466686997714316,0.4770150253083322,0.040023907276543515,-0.8515079142696208,-1.4307908200225228,-1.6550300423489788,1.5570395233784196
-0.48280962897935553,0.0037619889309936077,1.03695846945535,-1.5661597900619797,0.9023897237713575,-0.978255172737742,1.023128031046793,-0.3642750231531295
-0.39331503207250934,-0.706661198044878,1.789881427331018,-0.007746242400031899,0.38380239730775356,-0.8945465805286845,0.2880038825660413,0.9816594489983715
0.9994954890607154,0.8479611131133528,-0.009927791692951443,1.4993217715701685,0.559326640371765,0.13997202872278997,-1.3029790382495094,-1.3236468913069348
-1.691668763101029,-0.9866660177442529,-0.9248383654071963,-0.7006293098837993,0.0344997241204194,1.3653997502686783,0.2489454570461808,-0.725865632927345
-0.542432120647413,-1.317101782393899,0.8265329016718117,-0.9225965224759268,0.7086518980715133,-0.641333597916271,0.4159197324313015,0.6874894911059944
0.384771297005159,-0.7771849630739942,0.4301208421644215,1.075045609898549,-0.7845180681184527,0.4809574343040732,-1.3282696205568285,1.2671307022224376
0.22602919024049778,-0.9576708504113628,1.4247351068391023,-1.1268202815485848,-0.20153926186362514,0.7418613008081305,-0.684067129143838,-0.712958176746534
-0.46000534958748596,-0.47129065540921,1.2229148055094998,-0.527423977522095,-0.1206175068581481,0.033827642822257954,0.909388961774659,-0.7274780237067432
-0.007119975829558707,0.5004957997722046,0.9590017530559438,-0.2375429502665057,0.7438394912296407,-0.5030256672579911,2.331815902169023,0.18705016774118036
1.055809554122709,1.0468596353297888,0.4812124438036117,0.582325280712978,0.7881805046507491,-0.6993051626085989,-0.31573552076195927,-1.7726344178201703
0.7883411975171192,1.2836185564386466,-0.35242878627040314,1.4563952689288626,-0.6544240567978975,0.050294503632604834,0.855323918194034,-2.169737188434517
0.8910922808805982,-0.007019598486740151,-0.6250773527755352,1.4924467285889342,-0.3203063520033791,-0.25329798618121946,0.4945190759202414,1.188932697284555
-0.4942984529346821,0.5464142281268266,0.514202712117827,-0.2762534548512786,0.0722625483924425,1.7441517936578832,1.532245509002578,-0.9012765354588012
-0.8522156914592074,-0.8286413876102536,-1.1437394147913866,-0.14767208402198306,0.5035097260066239,-2.6312033037244387,0.5978192538850847,-0.4746627951480445
-0.7877152346228972,-1.066582958777872,-0.4640493532169945,-1.0625900788666758,-0.8604755637355165,0.6488384230254278,0.4944301982745197,-0.11951588665704455
-0.6543417540339894,-0.15843382477162327,0.7036933689305681,-0.6150323187899575,-0.4012337162521498,-0.30587444046892426,0.15839662404943236,-1.051663348178048
-2.4141352878751254,-0.8561755544679684,1.4326720720868662,-1.0322911379654343,-1.2481350968468086,0.937447764432024,-0.45915371642483,-0.4204126759581864
-0.9373643003565401,-0.8329741128140619,-0.6914381676760276,-1.0843047245599329,0.20736454223946002,-0.10789645479517516,1.0009795391660055,0.43420378423384354
0.10413718269538105,-0.3096896983519751,-0.09014177489594473,1.0160519533491672,-0.07646464917972753,0.7642787598300125,0.9048024927075298,0.6056004191146527
1.0469475563853234,1.4081905533542658,0.39878171924947914,-0.9704059154008948,0.042642072823552986,0.9725364416519154,-1.003629880258493,0.10072625806396529
0.38395617462266923,2.318498230808826,1.9189093514316784,0.5550721026643558,0.5336252423411256,-1.373306589586279,0.22336781377275058,-0.3343385975243365
0.44149378700488223,-0.33946696944833504,-0.44657791349767695,-0.55068363124859,-1.4628280304299148,0.6112736316139051,-0.5101237496985719,-0.8351560571635706
-0.8168832785837447,0.02552338424737742,0.1305031892889962,1.8899116075850437,0.793708733320786,-0.074481539907627,-1.5960634374104206,0.14853713995036083
0.1154784057794991,-1.4907901677823958,-0.16581026569940616,0.34997056094638346,-0.3980140766624143,2.1657025684382583,1.6989532203444864,-1.2397420895526374
-0.8396545355860544,0.03782743096784546,-0.43058282478728815,0.6906738315660251,-0.25879492830483786,1.6847644795857288,-0.11902958495141377,-0.09185525998237143
0.39762265549504605,1.9681310769404983,1.0520757289555862,-0.22829751393359068,0.9104996742472177,-1.1312976117141316,-0.5988208728242762,0.5692029721509213
1.156430402629181,-0.9681050508757136,-1.522200199099943,1.2194312417226014,-0.7098635766769118,-0.5740321047071277,2.2718933368912055,-0.6269605215106675
-0.2200288408550111,-0.47761809662575416,-0.11298237228157865,0.4887032088709885,-0.21807860747150493,-0.2620398456789249,0.8180674226980909,0.35895288717621
0.9644005659559489,0.08817462982181047,-0.07703835613103992,-1.0894505657335682,-0.15920078097152882,0.4241276255146412,1.0824093477004606,-0.5585084337258764
-2.4157243655002043,-0.27923341227260945,0.131259638466762,-1.9345339870339124,-0.30542101250171017,0.8304565401226186,-0.9927446798470173,-1.0275937914729731
0.6415062699170079,1.905013050485534,0.10430730935903289,1.3858638210888141,1.4400570115322857,1.1645770819783727,-0.5937018552921194,1.4916554187940492
-0.22528204193968887,-1.8471456648675857,0.36091974849262326,-1.1012687171457638,0.751704056637397,1.4185375578361348,1.5765276330645484,0.3792697556380029
0.5823141711279001,-0.28980561446242004,-0.7031041083607898,0.6288528269491455,-0.24303672872503354,-1.3597979822124546,0.6314945830431393,-0.15252747438653874
0.14681327115635376,0.18129886791019964,-2.3202442371042693,-0.5758269390142724,0.521054469825696,0.29014584665093224,-0.9857267531780647,-0.4972751890985146
-0.02475227717369183,0.9980947297028658,-0.19988876563713562,0.17727228089567296,0.6770966548818261,-1.8479069884652641,-1.0231906461260365,-0.6210250168929381
-0.397820037815443,0.03238874951198686,0.025063784216290713,-0.21693922943859767,-0.21526444757591684,0.23913969450206524,-1.3003812264636174,0.638965726662492
-1.0610717201410742,0.5744395604609255,-0.7498844198274444,-1.5090386466717631,0.9597784240878142,1.1455676242860529,-0.5716025969469055,0.6127862630302057
0.5452679996754404,0.21458790546444004,-0.034708584996498634,-0.3055567277724228,1.64412693554131,-0.6549586669488366,0.7880527451163062,-0.9399468748075336
-0.6286687118442397,-0.9958532950098106,-0.7348684193790622,-0.1450671105372966,0.0003707052708602615,0.08808114742640316,0.0844659106210316,-0.21774454126238074
1.2207656764653023,-0.14215971216955828,-1.2555392914301413,1.0728108255781943,2.0450884786195545,-0.01935317255671821,1.484557195951517,0.1736341199270455
-1.2238936230971864,2.14228547090226,0.15537571932699337,0.6259452101319294,2.031948358442405,1.14514979710179,0.15267519192290704,-0.48403199813130243
1.2346087719346568,-0.795336415482452,0.8734066905072347,0.22950900616585423,-0.17023663211953705,2.2570330339538778,-1.0521409137275683,0.398032584118469
1.7053316903881632,0.7064879255340056,-1.980676556918838,-0.03286688705717934,0.4409893973377618,2.10967356354847,-0.38630664789965674,0.9820716859585926
1.1533891856987601,1.2838898675715142,-2.039417548374197,0.17382592805476557,1.1662214061378842,0.7945087568800212,0.40183743618047024,-0.13993867329237258
0.7459012636981701,-0.9486555053589167,-0.20318197327121124,-0.5914116006831402,0.08055445429038391,1.1789695792435169,0.5212638477721996,-0.8731961192759665
-1.8172663159747253,-0.15173221837231127,0.7391141537513137,0.8297787105108155,0.2506349688981268,-2.1831713896772365,-0.08258056754522447,-0.30109624664257134
0.2220875629103652,-0.3374467132441934,-0.8089938199308278,-0.3682875330653748,0.3671130760274808,0.19801310324350022,-0.7011013426635615,-1.6427215493639606
0.31698297021932204,-0.8145845666303568,0.5331309452266283,-0.8448676482162621,-1.3029804924551904,-1.0393127385666747,-0.681311874954199,-1.3244008184443024
0.4583625126292757,-0.5468621047263655,0.22653494855228432,-0.0765178459429814,0.42760915682274697,-1.3173043500703672,0.3955575523755297,-1.2774868968891469
0.41724578593791445,-0.18273920292143514,-1.0798433902381885,0.22524946868906928,1.02404718835935,-0.5174573104920577,-1.1944024585684614,-2.257010333603758
0.16432246759225796,-0.7886941745762336,-0.9150990171108263,-0.24914676575760453,0.6683335690106881,-1.2088463155046936,0.5056055878511785,0.027604500206120323
0.21902586145662092,0.06675248111438914,-0.9355170045216367,0.5583090022819265,-0.1474450383995879,-0.0745468063570036,0.7532788119229544,-1.1967693979635146
-0.45869669492791443,-1.6553445992317088,-0.01709211967665258,-0.07453154075552798,-0.7539665151474316,-0.5050846167171686,0.4821992607605121,-0.6943127157212414
0.4455756840040673,0.6271393009409204,-0.2606945084380414,0.5292012780487556,-0.020432735459295012,1.4873597163372405,0.5361149650588114,-0.02280174404967989
-0.8101698440656281,0.9106368442414461,-1.0061867353667215,0.10077236854380806,-1.7713241197371663,1.3588086428536155,0.0798955635174531,-0.31377954757707643
0.5203281561208285,0.5565049982036441,0.38068153967868834,-0.04154999551633585,1.767585687685222,1.6253905951640437,-1.1496270242033015,0.6456049909908785
-0.5452267299679557,0.027170189883100125,-1.6181995273429108,-0.2946608879934246,0.00037011178791306894,-0.9686766490758146,-0.7089221340795515,-0.5163006082118732
0.4736973941216792,-0.06938303116055725,1.1900091106189148,1.5105514131447835,0.9534805967085367,0.3020960322734517,-1.2065935096414986,1.261317435672057
-0.9182279688870217,-0.1619518772707621,0.9587720431975552,-0.4037870275733486,0.08497520840756394,0.6622542463889858,0.5332009758323809,0.4109446254798698
-1.821406972563382,-0.32623271364778367,-0.611829440427256,0.4141941159188354,1.7204915482951368,-0.515638619411091,0.5751185207483389,-0.41637955850111535
0.28681492858701696,-0.30046141387589276,-0.8268271752871168,-1.5221419771937608,-0.5421147069836497,0.4343164246776352,0.960293585516162,0.03807428512053856
-1.2904336942312762,-0.8953947153838454,0.7834708361803959,2.1401297018389176,0.812626078325923,-0.7982854204537092,-1.242912052799094,-0.7517085906879235
-0.7101771435052828,-1.3673957292244097,0.6727698620749984,-0.32122810315743217,1.556012015530953,-0.7030936090228398,-0.758469203097829,1.1712050264441578
-0.02295007695128955,-0.24511160997195755,-0.021954372690652778,0.4166979468268972,1.475751340224865,2.124327551426371,1.3027921799356847,-1.8071881791368045
-0.9284900738620243,-0.07561330236561636,-0.9310767567986076,-0.37039139292647655,0.32008593631297905,1.8926530897859137,2.54137473058689,0.2549865258988371
-0.42012096000211363,-0.2618135437247659,-0.281114994726524,0.5232886925941376,1.173866285221158,1.4833878311131963,0.8520524301363696,1.0110622095022517
-1.146651767601578,-0.9099313998118015,0.7233864095337915,-1.364325666131776,1.7759456700302305,-2.2358480470561437,-1.477038859265935,0.726763044839005
0.7863425308481291,0.45216931096769225,0.649915806953588,0.5121999698393767,-0.5849308554654703,0.9554801666846386,0.09366590734041952,-1.3303721482028898
1.3416357054667896,0.44747565414742824,-0.008883273099404818,0.3518136378800789,-1.2423725651248352,-0.4965290094082434,-0.8535480912665878,-1.2972538174401087
1.0597212026846545,-0.38046384165215985,-1.8984802429044068,-2.074437483618449,0.2994778766721048,-1.228827455767341,-0.32598951256349107,0.2034610833407213
-0.6343216833421486,0.2850225788507569,1.5558383021176692,-0.5729179580241376,0.2945123472534929,-0.7059312079973369,1.2220716414548758,1.390868813575058
-1.3959248132352837,0.9585233156448832,0.08451303504286242,-2.009487564030366,0.1012488444710771,-0.212687702908367,-1.567801198710639,-0.5398272642512061
-0.8670686893163582,1.1102402004140874,-0.2251342117621811,-0.6300811147540656,-0.16411251335324628,-1.7344133638407977,-1.2869364049848964,-0.1196704852634709
-0.015878588034892758,1.3812549872081923,-0.15512657353552028,0.35771732224324193,-0.2579502554661353,0.6160060835599029,0.7871669432308717,0.3430228064690334
0.7742139565169583,0.04428996371895583,-1.926280746068653,-0.41471138959697434,-0.7843679704588793,-0.2427039322248865,-0.5100617799697597,-0.5431132326236222
1.2113559446203366,0.11753495072271772,-0.9791469190785309,-1.0312776935328845,-0.27588208716767876,1.2887037843045959,0.7158658590865739,0.5510714733519365
-1.4101362940216722,0.8113080649391824,0.338049963760146,-0.9077802758785707,0.28450803042977824,0.8279189417064694,0.765623839528612,0.44399444333286586
0.8589959977544145,-0.24711381328420406,0.23111089694287498,1.6688300792434227,0.013716193401751666,0.5127459340668434,1.1795589151367165,1.3675805756279102
-0.6561485979697107,0.41825089258989284,1.1437701734177,-0.8156796422634157,-0.6047627679910057,-0.9716828119629974,0.31480512799360505,0.9028401425137846
1.4093140381159828,1.0053060271109204,-1.8225490965866908,-1.0531551471680412,1.5074773982165734,0.28876404168330827,0.3382187027748017,0.08583959334236405
-1.9364285565826174,-1.8404456772640405,0.3090888460869747,0.349540551943219,-0.6453027906957174,1.5267294082250773,-1.033236722371012,-0.03493958316467082
-1.3595858638126719,0.4227660094846732,0.29243565010581807,-0.9678577589016417,-0.6546262617388008,1.5828264262165304,1.5029209567679616,-1.7265998393666626
2.402384496216429,-0.41680470756423,-1.4313812225974212,1.7036283619039057,-0.11080311102791798,1.7577022357102576,0.3415807288567438,0.7284046552410262
1.7392897690810838,-0.26959510083100374,0.5410298217219456,-0.46870350155735746,-0.7664644808531283,0.012306941351462927,1.963323124377806,-0.3477266857637786
-2.2544885131022525,-0.6688073831087226,-0.7804081729780211,1.6975189960195298,0.5973935272870877,0.1761818917461848,-0.3076803445077612,1.4601746675907215
-0.7269229133136103,-0.37841549651920886,-0.651713171761072,1.411075385061603,-0.6104685299912169,-0.280305732154609,-0.3090146969942983,0.7090672109004108
-0.5031391344266692,0.5744775623387913,-3.0603083995064595,1.8937917204378822,-0.04277871782212028,-0.06197017619513766,0.8127771661603472,-1.8523303799199315
2.13131872108936,0.4140978357943648,-0.3702389641885302,-0.683881515932077,0.5288620321506747,0.7409619382185378,-0.966302643922056,-1.636801675578847
0.717277622165003,-1.1922687929900078,0.3757106537143154,-0.4430904506547782,0.652022277761903,0.7486009463901887,1.225453125943512,-1.7157101821650746
0.7460428869090722,-0.5974866661331969,0.9900034506713907,0.4142182298303939,-0.4328894299074169,-0.4896163039843543,1.5837627477044334,0.7330153854263489
-0.2644177621189594,0.23388062681807867,-0.3372310825823249,-1.740640316731822,-0.6522027842472644,-1.0125683141418282,-0.3404216189931917,-0.29230132166263895
1.0835340747109217,-0.32607415766935466,0.14222417994490158,2.008945311923671,-0.13303293634777197,0.25498478305426864,-1.0306705316125335,-0.12266847978709744
1.471405659178181,1.052930880659088,2.201987423875794,-1.1245814301593322,2.072185002450963,-0.19926154126062795,0.12412970430052804,0.5554998407909044
-1.0967870050933186,-1.0977426737164782,0.535996325882253,0.14912850589919435,0.02755173895253527,-0.261576612714882,-0.26287863534685424,-0.08613203381155186
-1.3261788751305332,0.5801317054154286,-2.3030664298335695,0.47472413910945954,-0.8100645666320409,0.9285855989667859,-2.0070738115991262,0.3857066432335351
-0.03600748687302632,-0.8436063769776675,1.0290585279616553,0.17936477511989288,-0.4622107995624272,-0.25415934746952185,-0.8388302587862596,0.30204694111935926
0.6341617729659722,1.7048064955585136,0.33230774533262947,0.279243789826043,-2.1312187606455493,-1.1911839364364474,1.7106253475187299,1.1252452453042021
-0.8945565984221715,1.0691903129856553,-0.6471236165664573,0.8253198552993942,1.09331871978107,1.176007456666007,1.2402324982533834,0.16903748749914776
-0.9233272656478596,0.9682118507287949,0.6188499472858043,1.9694433368914208,-0.6855079464883609,-0.4910555539858173,-1.4341775591952028,1.417667370398141
0.9372765185764117,1.0237607322289595,0.2414450942676975,-1.2915910598957279,0.8747665496074882,0.424457720293673,-1.2684993582148882,0.21471035186191242
1.4708342339425227,1.1411872106510155,0.42400858319526535,-0.11709469155281381,-0.13845941736654835,-1.8936522876285695,-0.87511697457012,1.539237105687547
-0.4816723973209664,-0.4787070302005103,-1.1070293765160184,-0.9311669283117879,0.3773018788557933,-0.4949609618862071,0.5332659755510122,-0.3239818194276065
-0.4833380062295135,0.5870946672525249,-2.281330903914869,-0.5879383660817286,-1.628117326378403,0.5545403497749262,1.637368212122262,0.28695337239226953
-0.02218606085713129,-0.7829458772194768,0.08576276898802684,0.2661444669705467,-1.6895290680874357,1.9890511755677764,-0.3887930564705637,-0.621676238891544
-0.3194035454148919,0.166694427425113,-0.33789957629102246,0.16727021948031834,0.12861456592656462,-0.2200086091355813,-1.4146859711608042,-0.500999239749505
-0.6204853508268179,0.512282853017725,-0.9303842223753067,-0.67783422908524,0.24906287445813752,0.5371226934982644,0.812579820917809,0.9562930358245659
0.743926553823194,-1.2921408173465732,0.034035325966449,1.1192227179689733,-0.2238187706069193,0.30168395750132665,1.5154859844330386,1.9614552460103687
0.07193883250169579,-1.328601851181839,-2.1698106017707617,0.7683277992119104,0.44082650109661314,1.928517890427462,1.0052145767814387,-0.4749222824195989
0.6817491930810805,-1.0493288776298708,0.3629746416339556,-0.4138738222624311,-0.6825532905906231,1.2428117281249482,0.3110168098383187,1.0141801747648849
-0.3541116848657279,0.6969262778160888,-0.6176365072578376,-0.4116954397784504,0.13930316654309874,-0.20575558560125332,0.22839422212007593,0.2758694622592803
-0.4895060675630011,-0.6225252410625761,-0.8386416753063131,0.4319347697329419,-0.688427510439024,-0.6893702656481105,-0.6834750863596887,1.7455125548669383
-0.27522025464515754,-1.1015562128826382,1.707711620294417,-0.5512045070348127,-1.332464367746305,-0.1371276816557025,-1.3874597108205076,1.3109437387783076
-1.1920281996515978,1.1031865604182238,0.43708064945261244,-0.09678598279870601,-0.1087215817583999,0.5815716031958612,-0.36807375288663785,-1.1142545057461073
-1.3011993656177718,-1.8758715490299567,2.204559089029425,-1.0018160329725334,0.8551052285770602,0.410769616783742,0.019673456581554567,-1.2015322967677617
-0.6595264741541013,-0.3994481749407795,-1.7392091171348767,0.23272565000370762,-0.36232139371656547,-0.5354215774785515,-0.3078146353903926,0.11769814424299126
-0.46805332970781927,0.7662788788385904,1.0112617021364427,0.7358760644426584,0.584839639212449,-0.5907319004182444,1.794130761347717,-0.6989060101236033
-0.8561151884381584,0.8195358205883149,1.1811067301211524,-1.3492121652716718,0.4162543005521106,-0.17194188342522557,0.16385078592983776,0.3912254771604108
-0.5839724242892727,0.9776024076959561,1.4666923326442802,0.912074308298995,0.7907284039913935,-0.06767471516650353,-1.6452228763152823,-0.6717256712634067
1.7694029865635015,1.2124386101580755,-1.2918481468692344,1.001897324404873,-0.2481816482217044,-1.12825708527035,-1.4057806431306228,1.170198104463165
1.104113278484764,-0.9784413062624268,0.43365272862000187,-0.4132604856121812,1.9671844010165902,-0.31384709317165116,-0.7091821789617339,-0.732638130573649
-0.4430755781635577,0.0022329413289336178,-1.6200796076075725,0.562275373771893,-0.12610306057177695,0.9973844912436041,1.181050844479246,1.8485247626733408
0.5953708076292101,-0.666380542938729,0.013644490704120119,-0.9182743583330224,3.4843588932187175,0.9802292471793447,0.2195563736941304,0.6162948625709312
0.6489291375235252,-0.4737839564093033,-0.7961166674024236,-0.06766495199290633,0.20376942278975438,0.6458730501197014,-1.0169484211746485,1.569383973897685
-1.8962146521383179,-1.9685830035036738,-1.8039536627192094,0.35591195295023903,0.4805131843239044,-0.4496564897691054,1.362244459462933,0.6086905115086708
0.6467959498413847,-1.1528121786277747,-0.3732958708566564,-0.3126011267173052,-0.7266157982210832,0.4467773620524976,-0.8532087408274212,-0.9899127979177008
-0.9608963703574347,0.9211376391190554,-1.0615105761333838,0.9098596226072458,0.5425285338729529,-0.21974326183704307,1.0574656595210845,-1.4208424074717512
-0.6522532618118007,-0.4304752154615254,-0.14421857282137343,-0.07585185736599503,-0.7443938185267328,0.7407038245399143,-1.0069011351400816,0.25485149829109116
1.1901801407879786,1.293666503152996,0.2336006428064218,-0.9872146133333425,-0.13034179124043216,-2.219857517350511,-0.676914479113867,-0.7095493415190732
0.9480562699020232,0.6541433813233061,1.2210749464446216,0.2725528430142151,1.578979741959838,-0.4036117144432044,-0.8675735861408476,-1.1924303474711426
-0.3555849760271157,-0.6266512621642403,0.09274129198246288,-0.7892719253761804,-0.4069971041341462,-0.29414049288317473,-1.2265170910628214,1.5665392667730555
-2.4707599070830413,-0.04760103217064497,-0.3716712223470549,0.2611075434179535,-0.713552696057213,-0.47613838119124857,0.36108106106035576,-1.3405249898175997
0.9621509974289373,-1.0365554137188966,-0.8406227095712381,1.6668481890813482,0.9010914567249331,0.41332642860532415,-0.3426743448943293,0.170896222505826
-0.3243881521557065,1.4192735444924143,-0.0651067153527951,0.08319654959040235,-0.23214308149072677,-0.39879250465079163,0.6647496162537148,1.2287383778612773
-1.1717432722548267,0.17095391687565822,1.291921086682914,-0.2213848140226432,-0.061855533041629676,-0.34240609269513506,0.585411516994871,-0.19115358573956623
-0.8325199002720737,1.0240743615194783,1.0158527662171286,0.47512267620746745,0.15510823798383783,1.44319986065797,-0.19598301938466856,1.061956071821705
0.9516829247930488,0.5870020232292943,-1.5447193113387372,0.1916625824720413,-1.2273538817736036,-0.23788013894751542,0.45072977243076284,-1.2730135876449473
-0.042989243776733715,-0.17818998960314544,-0.34602168256602023,0.041970070365873434,1.312040916301158,-1.5472509893507633,-0.14976644877078632,0.2630881271202512
1.002455648696103,0.2922484363979316,0.1689348068341156,-0.6100066868221518,-0.10675898145887804,0.31503541619006603,-2.1053453970145584,0.6373523484779519
-0.4942414317842082,0.010358820285775006,-0.33707838747193614,-0.10033923020499753,0.18058059557847483,-0.24823675716625304,0.04000358734998166,0.7172770232777888
1.4200883300937301,-0.040293953592259665,1.6698504770823837,-2.411418649791973,0.6985288970816328,-0.7312722094706025,-0.5706791881033704,-0.9814303206549433
-0.09295692951496091,1.2915421036757495,-1.3421524067776487,-1.133787513769438,-0.18322503216863328,0.4684023821314021,0.3465252394754871,-0.9160503456180605
-1.1288591253293014,1.6866904700644292,0.4486708621686943,-0.49228318583681585,-1.1995055987403196,1.3508621203269933,0.6658066919697596,1.0594482218367176
-0.6157434690050917,0.23742571373803986,-1.7675222758353302,0.7171638605395073,0.4786246397679233,1.5288677520059273,0.6165388736564609,-1.1188286902255
2.0133721423005047,-0.896259663418211,0.7123944710219285,-0.9864511744723354,0.6811236454433804,-0.3179793654572163,0.08727307513928385,-0.10247311697025309
0.1068620166063256,-0.3716743046112456,-0.5098319498845092,-0.9854014196363229,0.972097633400366,0.8322521653334591,-1.3872600361014416,0.24353558029682917
0.581757304695193,0.19216667848301452,-1.6290414708528294,-0.5905111596578183,1.3824765810616475,-1.1020443348130435,0.057135334731463275,-0.31174980521543594
-1.5778601953283293,-0.9684561405872276,0.8183638025484528,0.22293334478813864,0.1916011015629064,0.1076682276105162,1.9036951287823103,-1.217393020683324
0.44202160257596407,-0.0895536505240225,0.5300692223446555,-0.7441594309944013,0.11146398997365216,0.9889512612782944,0.37552810956140936,-1.9109116794254242
-0.8447748451789855,-0.4472817509100045,-1.5647378760530717,-0.8950227678834364,-0.4508588110709077,-0.8489699123512854,-0.5918176428677605,1.1467548018552618
-1.332049710718976,-0.1063276799584369,-0.29794356393774185,0.5732433528520752,-1.5922563306713953,0.9815494721703125,-0.30775754263251,-0.21154955937088524
-0.5380666287382028,-0.34933934565180746,-0.2703150463240383,-0.5686784042111903,-1.0795242612934273,2.810405626879779,-0.24816936594989567,0.6454093744847311
0.8535715886725989,-1.293786927299575,-0.5794755113121807,-0.6454623439747507,0.28200329033812044,0.7954338122860917,-2.7107290251269087,-0.23841752363944135
-0.043121852086543684,-1.114863755887,0.6455717016856168,-1.4248382868802274,0.44953681618506597,1.5981443086665073,1.3319686073453367,-0.28023534928282867
1.9596608241196523,0.3188400130619114,-0.5218572711146403,0.011665391410213178,1.4137163746587555,-0.6676828726671682,1.0980361007731823,-0.5951489458185752
1.3229445650169813,0.6765061710848269,-0.45897668191066066,0.5043843086179747,0.3368942153731479,-1.0827775965353068,-0.10203659296644275,-0.8530496986692196
-2.1901062955698407,-0.6348650122419314,0.5411119658487763,0.14699853784218728,0.8533929327105085,-1.0649920905906767,0.6371356975729217,-0.21508909829154463
0.8997631143168738,-0.43124079460496373,-0.17972329076025276,-0.566765779398702,0.911053844220333,-0.4378322463485437,-1.0552957572542871,-0.13392015913876124
-0.23971622807902104,1.1067582430240743,1.5745681477306706,-0.33256328550653574,-2.323074088013684,-0.3299765479185279,-0.5476934292143509,0.40018470393721617
-0.9590507208066235,0.010792777807414833,0.25918348099013705,-1.123956379814827,-0.545907436434831,0.9916222414130025,0.6891047094719448,0.3265971384377379
-0.1060523484271464,-2.1936712298717493,-1.0059228843987302,1.6599937274048984,-1.5141224856956723,1.2917220959087483,0.14136220663333332,0.5954386987371024
0.6577417445943708,-0.7080861891464534,-0.9483600867985196,0.5106451023755535,1.5227994601822301,-0.0980122256820164,-0.6027118137848687,-1.1998514173696972
-0.107703223393907,0.08336341666920759,-0.8770678865288056,-0.2773252130531271,-0.1493631715468708,0.751335060040455,1.6811964458375932,-0.28092742218596833
-0.9739705059978062,-1.778244912986478,-0.13404269693669832,-1.1159511896940442,-0.26472846080607726,0.01215559559494051,1.159520877105404,1.36244540809096
-0.5737738827557793,0.4039580335398489,-0.2676065903874053,0.3279994815732092,-0.35569500129950055,1.05609175545134,-0.7426519795462575,-0.8176497302063915
0.8509774512215234,0.5824407025194502,-0.2034795644179762,0.5717883368956468,1.4061010963352532,-0.17713538589227795,1.0182683382403266,0.929341159261659
-0.46586388154678215,0.3657255222426801,-0.28612753001799457,-0.029775141699197788,0.9351990637414521,-1.2815101156487712,0.14431515945560908,0.7056465845915755
0.24683472886785823,0.7733422500117716,0.7518178002620503,-1.4507392970663564,2.1150534360479667,0.7653343410215847,1.267771197075547,-1.745502907657805
0.44561447551299754,-1.5809318030334039,0.4456721358593528,0.04582797624420977,0.9199133121981853,0.21720281632925295,-0.792357293843584,1.4359025146683477
-1.0167348803514973,-0.9095683103593308,-0.21794022630500448,1.3634175128472326,-1.3621538443137662,0.42899055301905514,1.8684910883755432,-0.8775337330176088
0.7366100160526905,0.1329767071600883,0.1932396870780559,-0.3417143690054347,1.634774449856559,-1.6344625597282334,0.20796629273561948,0.39634435714011707
-0.26244103920235173,-0.40652749177692854,1.4445128273921084,-0.36940593158252316,1.1273149126557689,-0.7948410148526649,-0.010081020325353187,0.3911870729479661
-0.17084790300060018,0.2155881225199986,0.4821317201298271,-0.19665614869821602,0.8962983227691493,-1.1244288819494,-0.7037058876614398,1.5601231746259216
