0.8138992870634687,-1.0048024231824875,-1.103892867170583,-0.33147477300092076,1.5603078899696472,-0.8999505543683998,1.0533289107140704,-0.7079853972713611
0.15389742857020539,-0.9072083867438144,-0.7360178302545983,2.4957064377167972,1.7987369937225433,1.7039584106499572,0.5124908589951559,-1.215183519783363
-0.45982171798755317,-0.9785519446866215,0.03983173845450759,0.8100321355126299,1.3189646980668723,-0.6955195601344293,1.1331582980564798,0.9308525649020284
-1.3037326748041493,0.7755903256397015,-0.9387622334033677,0.32171170683383254,0.5445493932526028,1.907882206952385,-1.1884189978247977,1.286098747067959
-0.18139828091230195,0.8642217682012818,-0.3441989389205267,0.7245883899482684,-1.9805434455128852,1.0047395511263375,0.9876415332356125,0.15265426872910032
-1.0297728972286575,0.4567056363143046,0.7248105653764813,0.25045585182090757,-0.41822769351230216,0.40728185481413887,-1.1546079063124242,0.4528516162899155
-0.4900318574418375,2.245676299284431,-0.491053833669961,0.4741145804241192,-0.917273157617275,0.34223451905911484,0.7230426604294731,0.8396388753122555
-0.22355017057131868,0.9101778439735642,0.26361527848657973,0.4046152442814689,0.5824310418508528,-0.7572712038741922,-0.917556899891401,-0.0611738204795865
0.2828699045400003,-0.23909602095294447,0.7275854241997286,-0.34222684515897295,0.26408457067069624,-1.2431266246196075,0.5696747429656825,-0.7789360390939623
0.7952099994431343,2.018954944314458,-0.5976389710045361,0.5642405353520864,-1.4964932107948914,-2.054021236372046,0.08161832979653358,0.2537309570388399
-1.21525622299554,-0.8413041968286247,-0.1354991336162431,1.1813687779699347,-2.1851645182641635,0.593050612459506,0.8399055346860546,0.40709158683362723
0.6906274700086262,2.190701969441398,-1.4085528156357734,-1.3746363375575539,0.25333176868159724,-0.48501010289454694,0.014013801681482505,-1.075475775539206
1.6254397418127529,0.8509029896776077,-0.31764250528061844,0.42108162419923073,0.10024043406672448,0.5388894470844345,1.2668252603131518,-0.5235140341036413
-0.03848209101564048,1.5937146600832042,0.048958708790552946,1.2155387727511624,-0.05188080840856787,0.6475274191014715,-0.9560438918522369,1.2026694232876098
0.25783162987779684,1.0776601363659633,1.6243394200485028,-0.2825816227254217,-1.8716473492623775,0.07796515318299965,0.23401344410623012,-0.9267235190797303
2.385442735792563,0.11469265184425803,1.346385117816682,-1.8320451379457607,-1.085848034807592,0.18042751601183063,-1.2166284742061186,-0.184677057604321
0.330544899173885,0.6893704515741704,-0.08140785311824432,-0.9991729297653501,-0.8942666652771885,0.664800055830265,0.2286857080695426,1.1971214464447268
1.1320924176448028,-0.394433436465057,0.7244502275068452,-0.2577424534639165,0.33287716733648276,2.2074472923286597,1.2892735292230175,-0.6974027679392135
0.7706675790306742,-0.5278733132085188,0.09106374718532272,-0.7229496877801674,-0.42484646561019285,-1.4067502978893058,-0.029605412138508678,0.19430708462628632
0.43920785113806976,0.18742051422212197,-0.5828686485985509,0.5907612821410684,-0.3597481557072351,0.7495937608280968,0.3680544958215735,-0.5055193712589618
0.07316343418700652,0.20884382710445346,-2.2526674279477428,-1.4017028505642788,1.7228614984969695,0.09471308739322937,1.104742231865046,0.9676907160125674
1.2361238435624338,0.016360057698774265,-0.20202059536519185,1.8604936648978814,-0.21154084076735408,-0.8004385774292274,0.11325641110384078,-1.295032988512749
-1.6856136272254474,0.7980479768267891,-0.37138764740437785,-0.39881483631359266,0.9878790654964374,-0.2670626684354011,-0.6507225843852052,2.035840946739694
-0.19908543668684495,0.6035940123761349,0.4745191107757655,2.4190633844897955,0.9777375530678616,-0.18467189639766732,0.10937722153031042,1.4056383773944274
0.34140158491253325,-0.06016183584390284,0.20651988275587368,0.9537749761909096,1.730496994553355,1.1967171278633908,-0.06745235836565712,-1.112191979518431
1.2203423829713866,-0.37868801914937755,0.03931047600736437,1.192269463737175,-1.0984945386786942,-0.022116554240976086,1.3787454344962904,0.9881604652220927
0.10458312349017013,0.4004970907833841,0.4987946840227543,-0.6567441294724081,0.07323667198829502,-0.21384556958367237,-1.666589722451383,0.5075846622032252
1.3291419769598087,0.11781781134696623,1.0639163587728444,-0.46069330665408426,0.025267277431279263,-0.11526641493788324,-0.9870467987345299,0.5533652861294751
-0.5112829345627927,0.31810563190543417,-1.738655880914752,-0.16026345740754425,-0.21004931082088915,-0.8368808278933751,-1.5166116555586782,0.33950097167751914
-0.16566108164358676,-1.2474135252130516,0.549879002854544,-1.8247117618698512,0.5266531426769356,0.03789645747492752,-0.3778073905718,-0.5927307006055822
0.6484572469313962,-0.06742399814679602,1.8538564912186681,0.5338909351763801,-0.5992043551448283,-0.17026362991127342,-0.3802762948523351,-0.03875968947644217
-1.6861304533169403,-1.6013678671684797,-1.380366142661947,-0.45260774753339933,0.16472464281294028,0.13728336717606826,0.47142583765507096,0.4844595196765586
1.1897780989523448,-1.19529572313392,0.5502061685892797,-0.12283876014019354,-0.1880201707926629,-0.21197654489898757,0.2852580300645508,-0.2722717346081067
-0.4690346567312316,0.016933731280213367,0.7613596428021641,-0.33946278900287663,1.0702270457243586,-1.0106301947047978,-0.19310538550383613,0.22570087672971265
-0.9519071910472946,-0.5266226981788995,-1.1826177816681451,0.3818311382462019,-0.5980477638550808,1.4608519731967857,-1.2877630543919703,0.9607782517636234
0.6283792958493173,1.7701703989305766,0.7898339042689185,1.0643763150261185,-0.02762511627940569,-1.2067672579132454,0.7309969125556979,-1.6667157646630524
0.6147272321599102,-1.3867005936593895,-1.2372705387043559,0.8900427124825486,-0.6522020297111818,0.470282813789173,1.5968350628073231,0.8673591828229564
-0.50479281704661,0.5574898645293562,0.5641420054236904,0.6514746080915146,1.2243757168750264,0.20970454054763893,-1.3547484422130354,0.28661283814037963
-0.14997594350067814,1.7884041972732614,-1.0885249222936126,-0.968000113444526,0.1116048031678967,0.2271408582228856,0.6876456427430488,0.0582869554784989
-0.5938641568701706,-0.5536708457775245,2.23101224537542,1.235802755811608,0.7038486961568114,-2.404861833114011,-2.1236817949400235,1.2848165005591563
-0.16209281902527403,0.557748889082945,0.4982708245603155,0.6377473429110447,-1.2018058661372792,0.6490348833958245,0.9834613305189595,1.673479017847521
-0.6477389351345181,0.08897655749133772,-1.4848257458430856,-0.7795043701443488,0.6099266065406088,1.0883522436846091,0.9602299033706806,0.8156487992905024
-1.3445449701013343,1.3231262269049922,-0.4628078484881537,1.180330012526824,0.3579433555990549,0.021023389240002528,-0.019017800938542932,0.10533780629812765
1.3334361251772382,-0.15150197819083355,-0.864145206497955,-0.040093876488852036,0.43166375984141236,0.44364210438906737,-0.7075805357942571,-0.24937973649360604
-0.03700109983322969,-1.471669033217388,-1.0237856544133181,-1.6478455102037752,-0.175064716751407,1.1891107165939583,1.3534295186867569,0.362611588877311
-0.9545114303013477,-0.22505141293801917,-0.5141795385200407,-0.12762352597658846,0.7538002367056537,0.8052567604521784,0.30449116234266416,-0.38181924939962864
1.9363254018467473,-0.2286669522312479,-0.581530497289196,-2.5105352565308956,-1.1950083190001883,0.011029885803271033,-1.4381956840890566,0.2747788382002038
-0.21995698016207146,1.265761122134957,-0.07111386066548409,2.1219768967118298,0.2960418688364936,0.15664264771655614,-0.4154548790931679,-0.13732420944496018
0.9267100366188193,1.5104084008005223,-0.9056645977861565,-1.0247075343814804,-0.2762849059935259,-0.016405148007607236,0.5209527025152003,0.3398736638658251
-1.3193760180772063,0.024935585967781716,-0.5955376094250093,1.0220688262192072,0.33102726493139495,-0.22734385772836546,-0.8127112418780105,-0.22936841656330317
0.0007592521098499645,0.290104261600813,-0.14638935672288084,-0.2347490232988665,0.03541865863198409,-1.775622543793079,-0.346859958797296,0.9605027007946234
-0.6987905908332523,0.42522111347893066,-0.9914999464994438,0.9275225107494465,0.3687490189240991,-0.7236796682728381,-0.37743676329707454,1.2159074919177482
-0.6692015980262602,-0.10567842541849123,0.0361798018966358,-1.262637409768137,0.9114810775778781,-2.3278301770655414,0.9388032402092183,-0.21801809662819477
0.6482805401811425,-2.1116256477862527,0.3833953249412746,-1.4009988244191598,-0.8473086599275615,-1.9387818822308254,1.338716674648422,-0.7485339721040998
0.5929266893361935,0.40748403484664286,-0.012950778303427665,0.7142802418902341,1.966665221591359,-0.5398626448735712,-0.6963286225714241,-0.5452356592055722
-0.053326860754625754,0.18957409717332332,-2.4439961120921874,0.2927155933167233,1.519049977393808,1.3545482319388482,1.83724156794815,1.4860921462738133
0.37183103880894075,-1.2855126159962593,0.5925195745098426,-1.6372833288772544,1.736957829788115,0.3254920596861608,0.19379081733876824,0.06696758771503361
0.3316368639260566,0.5393475020305711,0.9231012190759931,0.10109918869609567,0.1849128312846018,0.8773406832035652,-1.7809486836266935,0.8239766261896482
1.2946611625690683,-0.5055115812015354,-0.9813808467361476,-2.4032239127413386,1.3782085617945157,-0.11374437957689658,0.7667243394795089,0.6844021842402421
1.1284600955384216,-0.14215022693902135,0.5746437462353915,-1.8441623114240537,-0.9417566130986587,-0.637697852369148,-0.5935217393573691,0.538072739307658
0.6929511841822273,-0.9910664102792754,1.3183272553101995,-2.360862050510172,0.5006618495159952,0.4499282460769638,1.279045616544609,-0.7345459436551909
1.2797337138058713,1.8716737235590037,-1.6274211825142015,-0.1758811200004939,-0.8472553844675867,0.4782169641346772,0.5227503155803339,0.7466472095313553
-1.1133510522323788,1.9686521570597029,0.24088077104255265,-1.202366179909609,0.732974329659479,-0.45893945265664543,0.7160987542353062,0.5450409829105641
0.4804021603622138,-0.4299229384426268,-0.738595279621966,-0.11068149187109627,0.7325401391672313,-0.02934540477927131,-1.0163996238250492,-1.1219017652821777
-1.4303909841872675,-0.9957502394163824,-0.3265580282900061,0.00769116286429377,-2.7527818181849844,-0.0012087893726462726,1.4976412047159786,-0.2705513641417863
0.06828553190350296,-0.011799415434143989,0.2271632885180214,-1.0634061726426227,-0.34935243279210343,-0.09439493657077626,-1.9829098098644857,-0.8608962898054204
0.9774437470621717,0.24709213335125893,1.7652095787650954,-0.2504686191907732,-1.4324320289424775,0.8048603609761027,0.45527061338288555,-0.6971901643751898
0.7223897909707964,0.23094337858443742,2.0268482852391223,0.3172932346288605,0.00883924701614693,1.2273356764228736,-0.1955552667204856,1.4224927252432014
-0.3696897969414841,0.19814636420338966,-0.4209485286983665,-1.49831310491788,-0.3981388920247868,1.6171614399245997,0.3605698882950518,-0.09060625284765952
1.8362050976457052,-0.016115069262900114,1.9384725905805498,0.3680795067991278,-0.03976265581461637,1.4488340112317735,0.14049594247551025,-0.31035548984861416
1.697161208711838,1.0766321042371945,-0.7445010541018077,-0.6601500300850643,0.21842623800179395,-0.6047829131659124,0.9811880570859758,0.04771902844057185
1.140702105019705,-0.15701874748757425,1.3295483970062472,0.7901585115448521,0.3674150753872969,0.7435375958369542,-0.4411817292331968,-0.6890857692842779
0.004097284274444156,0.9492786085669824,0.10591121587731693,-0.9874580281065276,0.3478471027070122,1.088465529348493,0.30097461054026703,1.2405178604424814
-0.08453119398643762,-0.007192484986439989,-1.5889684314278907,-1.9441600883310852,0.7878442164323247,0.9151632628791765,-0.034172382298760226,-0.05860937901628042
2.4958934146979965,0.41821456646445754,-0.28965891723928106,-0.8965885852716997,-0.22464402342217957,-0.5500215136659568,-1.262252735127693,1.133737237110606
1.0118379623930802,1.0660584158324635,-0.2841565481068897,-0.5127766152260635,-0.07197678683002989,1.3176470876836426,0.997285217450322,-2.117249076535676
-1.171077538565333,-1.6600872787949281,0.08157688909144646,0.29858078437572544,-0.04954211758794533,0.19317042165392137,0.021435595668436877,0.7131292749564497
-0.16633411855488658,1.18435153469216,1.5896921272212603,0.6353360888306111,-0.2855850062824676,1.3288824262490209,-0.07839026875156913,0.7729794616975576
0.9289494903455079,0.3891774435717958,0.9079236675022005,2.0265674768187134,2.6155066873909503,-0.7502345283034723,0.12523477541066083,0.7046980445400233
0.2788210220688657,-2.019891508765533,0.25696155548174265,-0.9762167515594177,1.6985324286910488,0.39487751646780783,0.15230105173131506,0.4611908667892567
2.9341049269896686,-0.2250614449151993,0.927731629574409,0.69271937367841,0.32171473197598477,-0.21643860399564302,1.0225998463156551,1.4608340027320983
-0.4363305803180811,0.19441240260622994,0.2121404792240257,0.702071082543187,-0.5137051816692544,0.21334807069712242,0.21658012942374563,-1.3342801037608534
-0.5013042506267779,-0.16808016994007546,0.15407156761944116,1.6630348106571815,-0.6387723884603596,0.8412527135145146,-0.7748940892607222,0.15761390139997986
1.8088101993341579,-0.6855150065647917,0.19760872386331682,0.599060375630665,-0.49970843471075166,-2.011569513572102,1.2094228547177983,-0.0018293634356864178
-0.2145535764852625,3.103378810153954,-0.5012867868421742,-1.3739767552749156,0.8612479987326538,0.1586957876234684,-0.9914044383449976,-0.7107270788895368
-0.2909798880742409,1.3583371285074408,-1.2456755127318935,0.21648751511087444,0.8794643038448087,1.2125478784994435,-0.5857033585725433,-0.21186969586449667
0.22185109610231069,-0.6291325190166502,1.2152717996731512,-0.07341807315879306,1.4389563372987535,0.21243410605667234,-0.2996627431957413,-0.5677423586866892
1.1022166214514226,0.14184895862380895,1.803334283349858,-1.016238423426439,-0.16697772505937508,1.0487640447062883,0.33713640085419583,-0.9684853023457146
1.3296345582430895,1.0185961954397387,2.2414007651931347,1.383686922408503,0.005505624280790066,0.1610443980086391,-2.126156650476502,-1.7814336541596516
-1.248451476967623,-1.7388171150222251,0.4490434593519078,0.5290234858671615,1.8701403758212047,-1.8497337262285176,-1.923315535890635,1.1120271389401597
-1.015739126083123,-1.2391319831777687,-0.9864656890841274,0.15037568245451105,1.3494354276457778,-3.0165800416120447,3.061037301395969,0.4093437077520528
1.0348218612722382,-0.5597778660502059,0.37733758424653213,0.9996311376339523,1.0206522569676686,0.32073410239358274,-0.1512158953713202,-0.14639226748087597
-1.3322348290173691,0.5120442843447279,0.2056629177131622,-0.6795619756185425,1.1126848881288094,0.7757229491338525,-1.4116309788038248,0.34256169934916514
-0.6423884896369392,2.2935913069856797,0.5812334934053359,0.1106491055073862,-0.8519020939474392,0.8129159338762344,0.07302706661087595,-0.30123610020529284
-0.37623518766568986,-0.8139966283925996,-1.6942615895522357,0.38708669302692233,1.4536834064224353,-0.40336121907682193,0.25240301879939936,-0.6321894969571209
-0.17977685995971188,0.19514725739567187,-0.3175438472496199,0.3146164501676295,1.5268412675863416,0.5507895834522017,-0.011853990024054063,0.5503557746846652
1.244441600683896,-0.4323429360585151,-2.1222712704068893,0.14979230052804793,-0.8290702534924677,1.8099812935440789,-0.7084706272764455,0.5278434673481319
-0.8030164543983684,0.09427829440957085,0.1852699925659018,-0.7959149475768561,-0.1641983417054842,-1.4479374918785775,-0.3847759421433529,1.183441128531453
0.7356474279119971,0.6678391714983233,2.670417564266416,-1.0655172793855847,-1.1497194396369657,-0.761410261364092,0.48227608180860954,0.8344973318530754
1.3639256375164517,-1.2478897049207256,-1.1149600090201193,0.9561006683280201,0.35320139262163625,0.34840291129077117,-0.31634949050222827,1.2921263561095568
0.14313321340262075,-0.4091191673340432,-1.9256212309667458,0.18666887301330065,-1.130368598845251,-0.659066095263947,-1.7257534373975436,0.6344803120892032
0.05278775246806417,0.046557753167788714,-0.03306373403714222,-0.004285761198391063,-1.317526345244363,1.2194082715875811,0.08599773728920439,-0.6121266940650631
1.3792797595418604,0.9329747348141639,-0.1366713379562967,-0.8208841145317086,0.31336961047664924,1.20742947240973,-0.17883252163822114,-0.5376397891439325
-0.2479808938501446,1.1129390117172213,0.3825961375837144,0.5693214990314884,0.585907154034199,0.7299359974008961,-1.1340437045199676,0.5183665491211753
-0.7956091675132807,1.9506402959302993,1.1754123523012163,-0.20301247495699304,-1.1376279341635183,0.09866568544444075,0.05197788238758731,-1.634813513509556
-1.065286126004012,-0.5694765394497696,-0.5604020472969405,-0.8527780794592622,1.41289869837723,-0.13719634701232805,1.6963404260154404,1.7128763174454433
-0.7484149425876455,-1.7517232792219732,0.8703635518690129,0.3742379068799799,-1.2692332728902136,0.17047324488803936,1.0053858949128287,0.9220787968053211
0.4298165610944273,2.156432929133178,1.090574331960252,0.5098460964211068,-1.1729006235402852,-2.0437785716291916,0.0380060678754158,1.6565441799775473
0.7646845037936515,0.3840747686558513,-0.054455092907358005,0.5012373599871155,-1.399899387802818,0.44249710916202356,1.0209161750038926,-0.784234420983343
0.3808926599066388,1.3871465634269053,-0.49899602830705103,1.2731457457583304,-1.7261883829510125,-0.8769305896973165,1.5950701053199368,-1.4177545320102356
0.27262666065350477,0.33494251133122094,-1.7703973427784097,2.0783361643364997,-0.6118917905709894,-0.754434695167371,0.5063702756784965,0.25240367521127194
-1.583695591316589,-1.236638416822094,0.7059354201698987,0.044072054995786224,-1.4879191654594812,-0.6082409652121651,-0.4966573998059595,1.1826541193644085
1.2189042638224399,-1.1501761360697926,-1.044730340753632,0.6099720001432735,-0.7059154049958437,-0.21225774887525603,1.4185814596545727,1.7566375670696086
1.103153187412211,-1.7220610676129178,-1.3171468818181287,1.3856222341807236,-0.8481052996803767,1.351068706823601,-0.1570240828675393,0.13272387960765644
-1.9269615394776394,-0.56851186428268,0.31556765361210387,-0.9108210507192412,0.0812278543042047,-0.045593988726714024,-2.0696695596667416,-1.077429892261807
-0.390186338810896,-0.9313082389704705,-1.0014892967906224,-0.5272526190417037,0.06268263161712183,-0.39475062924873183,-0.2814069908205655,-0.03898913792456475
1.0821518870901292,-0.45409329600116094,1.4741524782174578,0.22363812215195478,-0.7427885331261888,-0.6818031905656172,0.3290200109633528,1.2703789149230111
0.49156368607822515,0.2155575931756529,0.9329138655965142,0.44662186456712827,-1.2031089778280466,0.17233497878400916,-1.764100885125388,-0.22338224209725605
0.8448263263680534,-0.9776026043347807,0.372728587692777,0.7618252529932956,0.6651388891432622,-0.8295260656480818,0.1881307843729101,-0.30205224037993533
-0.03503184464835,-0.8128791607130527,0.5879201386723982,0.8344757291432175,0.437219960579182,0.3761138185339208,0.09529302993886506,1.6185482182287527
1.2142984103094216,0.6112509698955624,1.1457240204717505,0.4307116257116725,0.6411216511290369,-0.9072065638054408,-1.5117030476105384,0.07750737310636618
0.1597019794364306,-0.7446465684233295,-0.2704803845923241,-0.612560804401914,-0.5843130132688302,0.03640906887277721,0.3252374598605063,1.6129072173139742
1.5737280415311288,-1.4876241725325456,0.7614968089241627,-0.009144536867436681,-0.3571834687149173,0.660919990214878,-0.7278585179770362,-0.21279698306593103
0.295095365692228,0.26629931735892953,-1.01459343532301,-1.3681219486343976,1.1082492736268732,0.7350732742980634,1.6777479185655875,0.8230655920150293
-1.7494959664895702,0.05418290957079981,0.8077856998524034,0.42343988592654663,1.229813317049308,1.2317076397747098,-0.7727188452584345,-1.1980387114856594
1.414337960765093,0.41246160845032576,-0.9502964613882081,0.8083192733619071,-0.5923201168001397,1.8467978757807966,-0.13126264259431705,0.9896498772637906
1.553220007263565,-2.2074109365833534,-0.3060424750014856,1.6792492481384607,-0.48302539349363754,0.28025856232006424,-0.1949145657825612,-1.4710716346227963
0.34537394228409146,0.6833857348717487,1.660939584762745,-0.7242405905381162,-0.013997914579370807,0.7484289116881208,-0.8744964249061516,-0.35840726482109186
0.1466138516121052,-0.21379324025322838,0.40007353237251286,0.6477945965700984,-1.614982615068442,0.5830659121027755,0.5990758144601954,1.0468690672556868
1.597010000456615,-0.4004035917922006,0.20149009179473973,2.887837786362716,1.063904706087055,-1.45022651767924,0.2692741204587279,0.4805886045021946
2.2084920726828385,2.1027824368873063,0.6571197286486077,1.506539954429764,-1.3734548104218631,-0.04741768551921478,0.3293256788308027,1.350420524542206
0.5941405382931504,0.6260673641058999,-0.4087174671455205,-1.1928227859787583,0.6748448167490501,-1.2698436431773925,0.8295878421128462,-1.1996113518741938
0.7456797537820877,-0.499805467172978,0.6825421251833804,0.03604933144208953,0.9823514291785594,2.572153003043384,-0.1580929970109056,-0.5648952073045131
-1.9891651691961838,-0.8840864171235875,-0.8666226023372224,-0.6121812381462352,-0.3275331784273001,-1.3857194968902387,0.2647547040689695,1.7912865740156705
-0.1523808881518124,0.8587561348997799,0.6328910141348391,-0.3565734051646774,-1.05491917419703,0.47555916853442975,-1.7164610576636465,-0.10667971023835478
0.054256150146937694,0.9608836014918426,0.4745905184315627,0.5605771595071457,-1.2108130520066596,0.5537812191102341,-0.3437152682187331,0.28478416663866424
-0.5245826984883205,-0.0981457992280862,-0.9327504779734073,0.6563443368233856,-0.6483087791928099,2.0268641522752042,-1.1084561635345898,0.03441782633301633
0.06096944625875856,1.1618876506871567,0.13237907474911015,-0.4598348782521057,1.4303291784321872,-0.3620406928476024,1.3465017775827666,0.09945303858927539
1.1730589810120395,0.6172026018340793,0.9531512496599628,-1.5003303155401744,2.7798116345289383,0.039124811886358225,-0.7438170114473297,0.0531121111697229
0.30665315008273714,0.9931327042414702,-1.288447770458587,-2.281436669580342,-0.5607636119451219,-0.38903637107923156,-0.819505583861532,0.02133833585230119
-1.0459741985044315,-0.29696385724028906,2.280390335297546,-0.770370920688055,0.8122799946134112,0.6956690246092967,0.022821409907043715,1.2810719682630085
0.9361444815647413,-0.4041050877602614,0.2882232633773517,1.627281709495021,0.42315446783321586,0.7391480541956619,-1.5544090518170643,1.2605013096039186
1.0675856689621221,0.9612081834316616,-0.06302955278440421,-2.1216899396570303,-2.1155734111865856,0.07965962200962366,-0.39158461136323713,-1.39584715499077
-0.530840408633762,1.4328850055429248,-0.8800372888773174,-1.1427697595615556,-1.4686732036714927,-0.17122799327246513,0.001628969425418119,1.7691616923315936
0.008737127596443803,-1.6036027390181422,0.2264916628775599,0.3126161476190824,2.457329483663104,1.902067627484969,1.416242806171419,0.018065572881834337
1.0474987988018782,-1.0381608754777256,0.30198714504185226,0.520370567649492,0.25456599541446245,-0.4313930634071027,0.03592941547794408,0.0038355199146883293
0.7887911717394986,-0.35126946487846183,0.7704290290110306,0.06085655747818335,-0.8824841747062764,0.014065280617295712,-1.7332121614200138,2.234571482482214
-2.4886196642534997,0.8447724347378115,-0.5617407622660403,0.16937372460791522,0.6736899588135864,1.225639663043647,-1.2618729071757557,0.4214091861782008
-1.788043196862625,0.38319288480895664,-1.4503722379117316,0.00771022915675399,-0.7671806012329413,-0.11767886371927717,1.0818285944579764,-0.20039406060542597
0.33862394518789796,-0.7270655679471185,1.2393881303691203,0.205804494709588,0.04515260400336481,-0.9775415242147186,-2.3519705175538164,-0.37794773870490944
-2.617122853833212,0.7886394500833158,-1.0170159959313068,0.22137913782396337,-0.6571812744114934,-0.13928455402318315,1.7458568512711685,-0.31153771879158165
0.6811096451348069,-1.1931291148906131,0.23849341570396287,-0.06912250248709421,-0.8100886414209133,1.0701165435199915,0.024714768971245256,0.014718199348463268
0.6969830821223281,-0.4106315339573772,-0.5885697029577557,-1.6768753993598302,-0.05267875728020292,0.8263663173730436,0.31618582879491797,0.533483882600714
0.9194906552072619,1.5064406108240391,-0.17080082303562635,0.3160513169164062,-0.1419111889075487,-0.5560031357489483,-0.0646377020160322,-1.1793047339312397
0.18791830678123317,0.6389116200326811,1.5357547354401082,-0.46945651073812034,0.7867427144415058,-0.15069968824172977,-1.302073031569931,-0.22270045041393394
0.01957325781545071,0.018161388620136637,0.0302881719263276,0.31050621595038225,-1.4185107196338573,-0.2314905194886097,-0.6171198967714759,0.7131028203692035
-1.6056094542619317,2.145458413059256,-0.20039060032841974,0.30714387413973626,-0.4790301995447506,0.9181966049213661,0.6203921792785494,-1.2066562265364411
0.10938225867203129,-0.09985463702100354,0.9820449420763214,0.34434282909664726,-0.021996200259557223,-0.345030077322717,-0.009312620378265215,0.0019650199254937833
-0.26078478352446266,0.15097527289327028,-0.7595350633987734,-0.6422050115325499,-0.19546156487660338,1.3866002387953007,-1.1533768958592194,0.11708879320104991
-1.7295375908621722,-0.22331790889684033,0.04144238946615264,1.3675998779801721,-0.14101193700664488,0.7706763653808656,-1.0463718725951108,-0.7841003173539627
-0.6514187384944059,0.21879413941221446,-1.3757138475503854,-0.22059151209658015,0.14025338134725293,0.5011440087761682,0.649755315488396,-1.1185812333562393
1.5146924060265123,0.631472038705722,-0.5080946564332766,-0.22740564463695473,0.19970600686544474,-0.5636726092803858,0.8886134513794293,-1.2624003937625887
-1.4932680852413622,-0.5946855965178008,-0.5764371184478929,0.24364435556550249,1.0814909393574244,0.23077201179115697,-1.619168111456356,-0.3944945907014338
1.0297381639894256,0.7260944800870017,-0.06297279542183276,-1.1216637328621417,0.602345011930574,0.9579296473446102,0.7558201361886916,-0.18255764695033938
0.3088749905700352,0.6568168053872097,-0.8813548424439601,0.6655339453149682,1.8698877793435364,-0.9218245205612886,2.329598184623246,-1.4220104683585155
1.9796377013258928,0.32329897351314585,-0.3029949519071288,1.754044430453322,-1.0407783732059106,1.256927433576968,1.7911612200785538,-0.3766224295735638
1.6100322522447974,1.0241914035878579,-0.8811225748137201,-0.23288465084102383,-0.7011708152573773,-0.5222179131727841,1.3235789088215077,0.0049185943685273285
-0.5992580767801959,0.2057600816958735,0.9759432956777586,0.02574139408658133,1.0924725019100978,0.6967472771577767,0.8144191413953265,-1.2946062705337962
2.3887762056938198,-0.3449934968426441,1.1066614262895582,-0.8811482892506313,-0.46175453379029935,-1.024941129391975,0.23423623412068156,-1.030515298103715
1.2640795543189887,-0.4728453715030985,-0.6751672831428928,-2.402539310830046,0.053496543663095905,2.0756814029632,-0.5281768127172423,0.16603868615104525
-0.28871434470367,-1.1806626015275432,-0.2283481768074658,2.8869931816152907,-0.44764303531596056,0.4799988504496462,-0.739312224247658,-1.3681890838270439
-2.101161356432818,-0.2581174165635286,-1.0349199747401456,1.305667362766959,0.4873263610080653,1.1047755864500597,-0.7308743200362925,0.10495333553368565
0.10258239922605131,-0.8584225396851966,-0.8903340210592743,-0.63011579204408,0.38597613096885697,0.8519518773369977,0.7796772296529116,-0.21312045234670748
0.7368449221549721,-1.2878612289009244,2.348054161528863,1.982528343640435,0.28983876806865266,-0.4286229331941737,0.44639672900084015,2.2180689530407602
-2.481693346109445,0.35813893091280186,-0.6601780660637728,1.20817340578912,-0.5490038280927931,-0.8655551478755681,-0.8837276991720086,-0.3346756919669752
0.6299159116411966,0.6361195493149223,-1.0971498370385677,-1.115603937189321,0.9156745227807215,-0.9962477785308166,-0.3259062753254084,-0.9566058241094375
-0.8271376669845378,-0.21727914127477607,-1.6626098184904587,-0.4786193092084922,0.29743672815609173,-1.6489277404967555,1.053362278399692,-0.7740709924047894
1.159191955437088,0.7300703243865528,-0.5328614063288969,-0.6225365114943162,-1.2295183320946903,1.244520858333648,-0.4658870347201162,-1.2378438134472576
-0.8051318566674709,-0.7595727784996937,-0.17288384932985587,-2.9645536064221805,2.6004893428040523,-0.8924847946375195,-0.2016991010374897,0.5972881228325404
-2.8134691890660477,0.742206346446653,0.7372202153177776,-0.49312424010194605,-0.7547574851109097,1.5369448172900586,1.057653242944608,-0.38691582433056276
1.3518856687399272,-0.8422409300880596,0.271956546996946,-0.7245203919170394,1.5537912598100052,-0.46060731242208086,-1.2697213335176574,-0.8577108929719492
-0.11845339862453252,-0.4937306286223671,-0.391423288303948,1.256951356866336,-1.1958443924533202,-0.4037361617423281,0.7999476259244114,0.5172495046647704
0.00880226233685127,0.008644735348359469,-2.2669704756553046,0.395886031608192,-0.26489105625326065,0.6780546602179078,-0.26133684224677667,-1.0382001858547376
0.6487569085977918,0.8425026824512793,-1.5781285382903667,0.05925855224107936,-0.25138732174639233,0.10634054859043421,0.38864642440584457,-0.5012306677823121
0.5933377667381626,-0.24429578836712054,0.8282844466073361,-0.4213195043522009,0.05751442091089323,-1.683913373186658,1.1505014852457383,0.5066543954746812
-0.11057207193613224,0.8802562812421972,0.00029834662999129926,-0.08257996857904557,-0.3106052584350258,0.3147824623447235,-0.8361876488773163,-0.21575038690370216
0.6288800908282035,0.5586880185884259,-0.8076562851329111,1.3951041418092978,-1.4753852038319757,-0.16999909784709663,-1.2975587174713687,0.7038010193730305
0.027202780963014064,-1.0454223230558626,2.0006074407588805,0.7460997333945797,-0.9806726099312724,0.5011446319431316,-0.8975450260591541,0.08920792266610765
-1.9727445381347917,0.21719121667278699,0.2713715795919289,-1.8852711189189681,-2.61463781587044,0.056935514346233874,-1.1717403679242675,0.4993600018414677
-0.4175729214772615,-0.8295982708420908,-1.3952339611228401,-1.096836909657964,0.5879349847914503,-1.388861919543236,1.517284500960599,-0.09462248666504593
-0.44446199374670675,-1.6649897658548984,-1.2380357399328785,-1.3092653415737103,0.43416253172146185,0.7008690364716192,-1.965611348481478,-0.961333408237989
-0.4284566496750051,-0.673463287248507,-0.6533121788123807,0.7196015122756098,-0.12177579598321728,-0.15540341503703697,0.23955797284081606,-0.4500287457562393
-1.3001824886670725,1.601301223790317,0.9811397171436629,0.08832366493281933,1.1112843342695604,-0.7673832035303573,0.9405678581893333,1.7231850773502526
0.27834530614388514,0.7635290660745548,0.6084648557562234,-3.1969193744039566,-0.6469524836764701,1.4735419623001393,0.7946101608368478,-0.2627959496768127
-0.5750678722926225,2.200218705788027,-0.5956615370586094,-1.1234217454395714,-1.2988477391100024,-1.2523236850489368,-1.4967212011861117,0.6109281514594216
-0.45013483554517664,2.2701809405256443,-0.3371765954337622,-1.385704371566754,-0.9043950018812269,0.06299027183129066,-0.7658181808428266,0.11169245753105414
0.6161746701220506,-0.40649293353677524,-1.310440839600561,-0.7035973509435124,-1.148357238603491,-0.29071496628190696,1.7874107761637883,0.5544056911073053
0.21787591914989776,-1.749858640727051,0.23415804790000316,-0.5342872186996789,0.4521064129135989,-1.088275477780803,-0.985601601465015,0.11368740004346826
1.09378391275829,1.3068833208531865,1.2775512636976718,0.5569794721801244,0.5180163156377655,0.16036578632786477,-0.9411965213383664,-0.6915183978773565
1.2893329821004984,-0.040802367577137975,1.383090886674537,0.13164393490210302,-0.11447189654369624,-0.42300550784164836,-1.4274461107660423,-1.7200136192008901
0.9227151537853279,0.8889456948551464,1.086306359419417,-0.8972295630709349,0.5051873947054585,0.9839081048535872,1.0079305182997935,1.657628806384055
-0.3944603039164748,1.5874694892147645,0.7053406494627772,1.0210797844582322,-0.6803511802503649,0.7029482013523124,-1.8125168191044592,-0.3026831587896303
0.14226164334750924,-0.8777787188731806,-0.7809406310059255,-1.731074615929949,0.2501901509693874,-0.8076857368656364,0.3938295405713791,-0.07024362698197319
0.5871285866971937,0.4962085968669664,0.22531586041038867,-0.03140281274403933,-0.18625064353902995,-0.22426698727134425,1.6289647469360402,-0.1611141400874851
-1.6529843931542383,0.028557405815286815,-0.3852966769435553,1.639089931772001,0.15694101435872856,0.37443111101220383,-0.6724993515567049,-0.8167051167757945
-0.5824465523165551,1.019123222244973,-0.566178032185472,-0.04449591012102013,-1.4575428856784969,0.022091205800797875,-0.40623142757781544,1.2288451719521887
-0.8519382347645016,0.7419907768928125,-0.13886618899133854,1.5343509116401313,1.1758363703803039,-2.2915988874874915,0.4892250555746559,1.472241911959152
-1.1035968117702453,-0.8020490351183325,0.3723204346551299,-0.5170556268769744,-0.262724216230283,1.9663326782897546,-1.691021258907087,-0.2634430647218073
-1.5997189802663285,1.2287428730987555,-2.2583507536195366,1.1153749639284316,-0.9985875563946057,0.9379431738408819,0.5734370097362517,-1.718697335242022
0.9233912141319224,-1.0555049140171724,-1.7190970638200107,-0.807184463506934,-1.6464323277165396,-0.6121645180123989,-0.06367006621161199,-0.41683834872848
1.2744160316708966,-0.49298168859286895,-1.829844482820579,-0.9764164484695849,-0.42596252077705177,-1.1622928078396046,2.0406441987018815,-0.24354572352541853
-1.419099424977704,-0.7115490670154065,0.20610873669989418,0.3937065134440524,-0.6578236987722311,1.8582995924518877,-0.12584168048799643,1.1709622236076267
-1.7236926897251674,1.4004576973109748,-1.0221452256936245,-1.742992487655322,1.1976259870281813,-0.7721512363151938,-0.06663474387399393,-1.5047092281557009
-0.9462429248360952,0.10268785651247557,1.1834774915119892,0.8332261052277691,0.5784605269228479,-0.5541141941597203,-0.029141090341236492,-1.7874658374802121
-0.26719403304792366,0.6402290243036026,0.15087378325337203,0.9670930486745734,-0.030217238570052818,1.6472098269357434,-1.1421581853010774,0.6860034563582562
1.0828135760812403,0.6830059407546593,-1.219529754444919,-1.0155106410404442,-0.5473760184718169,-0.5819040797116652,1.695903828850159,0.0831717174669329
0.0009057332950448065,-0.6056839908388613,0.3359506696611428,-0.76746594132936,0.10054136157577816,0.3650825279219673,0.6766731054875469,1.1841641004466712
-0.7536222666479961,-1.3294995133171763,-0.22547490418810323,1.707563344734553,0.501958430030551,-1.402267219682893,-0.28451189907707597,-2.9741516128943997
-1.9255071872905773,-0.856765486595666,-0.2612251862713172,1.281936509109881,0.599841203059314,1.7551242219482697,-0.10310662707711535,1.7952754980342696
-0.8459315245991139,-0.5100782385273662,0.7889539200401372,-1.0424702523652212,-0.6681181700008852,0.510804716173491,1.5714378211450437,0.39630814082001015
-0.6203149643093114,-1.6765385229441436,0.5752407949386976,1.0085061279417447,0.27324977377886694,0.5035208511280874,0.10881475289611668,0.4814719869489814
-0.06431751370341675,0.33223810516127544,-0.14654241417377975,0.3227665562410782,1.324212329214111,-1.1474692993473048,0.5535721068201237,-0.026026637930821148
0.028918004022982093,-0.2870580292759909,-1.2058611525724963,-0.13283606859352481,0.6114753273596278,0.909273824590609,0.3317646660986854,0.4906873062946508
-1.1896694357653377,-0.6774173817341184,-1.8552199796512931,-1.6076449782824611,0.2615088727020847,-0.913791580107364,0.2932942737572915,0.3944014651363065
-0.4749234035504117,-0.9827566633178261,0.24174763493618462,-2.2711153945687266,2.169929584466355,-0.5549586003438767,-1.4104934222918433,-0.822221470116653
0.056892814625297716,0.7462166216218893,0.4452775967233311,-0.8551461455723153,0.710229000118839,0.8870002506594207,-0.5402259660853916,-0.7204363041530378
0.15123317251020965,-0.6796766096552586,0.9362099930067085,-1.4179375139078016,-1.3920138385709615,-1.1798379383259239,-1.0474345360630928,0.5183138414486131
-1.2245544377166597,0.07420121035959225,-1.165055939009731,0.5736160770312576,-0.35231043272059426,-0.5005747667232165,-1.2199669332786558,0.6720526498765597
0.6501821196968084,0.7289097238721466,-0.17451328933722743,-0.9900717764777196,0.13256994322539437,-0.4313524497403662,0.6565755300179712,0.6515372166862955
-1.3337475049726173,0.7081636139531075,-0.4849523201862081,1.0670414998342748,-1.1992299737196503,-0.6369368748313299,-0.6015863365294984,-0.07697695650416106
0.5889987143729914,0.6718457859067238,0.36983588169783876,-1.1323538570563225,-1.7318599419015699,0.2594594431656141,0.9754491196949967,-0.6286864597401908
0.5804296515484708,0.31013683136730624,0.5915747026475743,-0.10282722535168129,-0.9157463664227645,-1.3558920713532143,0.14378986009689934,-2.240749681384491
-0.06306698261538009,0.011957665553583128,-0.6821348229704692,-1.3413533391116097,-0.7048904255905653,-0.5337450226380647,0.3676987051352516,-0.7813832899388642
-0.5256615656826283,-0.092517309391253,-0.9523807900790795,-0.9290380090749838,-0.6024781752133566,1.5254425705625076,1.4339538323312375,2.2244803204664287
-0.885305852246464,0.08594367228032489,-0.6190889002163233,-0.6962003613910167,1.2850346496059193,0.5207097702551865,0.5195432457134422,-0.6678664835778777
-0.8348772170707116,0.6094533447754671,0.5021514862984834,-0.1848317531590906,-0.12732428801527457,-0.9125050017389227,0.27990020807726773,-1.5826839601270235
-0.5682818758124095,-0.4498758685626529,-0.9842074336723621,-1.0360319960963358,2.120954318113466,0.6907487949586978,-0.81186517355415,0.2997993084061278
0.33235067221192277,-0.9104425902129766,-1.174029450765435,0.3306034290118818,0.8663970532055131,1.1158496920858874,1.2235147365284573,0.22312150149664794
2.9056798826636077,-0.6068015120442288,0.5733425499008682,-0.7939819016181695,-0.951333629898611,-2.1534891358686585,0.8600145040598219,-0.44565758110745735
-0.1910374519501547,-2.392603734363956,2.1560803027965214,-0.7036155205180539,0.17948110393981537,-0.6707146932320056,-0.45337399193535133,0.9957541192435482
-0.226455071116339,-0.31850823955322094,-0.28844916267024906,-0.06248664363397681,-0.4896454668071919,0.024681971406515117,0.04395558263418309,-0.31251786455695313
-0.5254473849106085,-0.23456800083865156,-0.6709271026933322,-0.7533979292288201,0.7170821226313006,0.8293611950618651,0.2121806698506921,0.10389896999323493
-1.3958898738475158,-1.3877312094564034,-0.6874714436058139,-1.8681664065147416,-0.3922836483448668,-0.2622886451411868,0.24534049118859794,0.7341569571444394
-0.576385162223394,0.12838602452068199,0.5432240139181355,-0.6992573697416612,-0.4287115433940128,-1.7163047360306194,0.5521392072760843,-0.8123619123002408
1.1146760650008603,0.3397458663028808,0.578206790186298,0.1386456540082324,-0.49996332270756977,-0.8923578458840109,1.585749158493048,-1.8280122993040184
0.3551284880381087,1.443183061240156,0.122027112331601,2.5429594583464743,-0.7562502860599867,-1.7377781863511297,-0.8504195123115587,0.606368390530683
-0.08375425294925479,-1.6152349972662696,-0.2030939838093087,-0.8905566984626297,0.9804349274344336,0.7863603621266596,-0.203045893454884,1.8626836667244466
-0.3649110444930924,0.09196459477807538,-0.8855682307875361,1.1722852883627304,-0.3840926781049299,-0.5932593513354254,0.7049562059980764,-0.09657733466741236
-0.3044803928962919,-0.08292319550562112,-0.08458271255122118,0.23179108856340833,-0.7106107920541085,0.2367639285517743,-1.510889260611951,-0.4571088033989299
-0.7923070679654798,-0.13896722869428743,-1.222539392167336,0.9704190581099269,-0.27233635042154897,-0.04142158740682809,-1.0149830544993896,0.14086608006973056
0.03620581895960749,0.11705911269826982,1.22986489522461,0.46780449659548307,0.28512050304437525,-0.023026851499351304,0.009328461686736516,0.3022733136310645
-0.7772076509312065,-1.8769577956750576,-0.5927804402837633,-0.5465569086131352,-0.4146313261718903,0.28035911513333167,-1.0837465722250232,-0.4781158539260617
1.2233905233237072,-0.684066920400535,1.6303573641576976,-1.3877579029323615,-0.03711651419300428,-0.4059080657283316,-1.3136701008646752,-0.302552201843232
1.2612889695432399,-1.194471985164913,0.5604436267505027,-0.45353348406819943,-0.0007238023176419716,1.2658409888950057,-0.32377230546815783,2.1642458068627604
1.7275379339982384,0.16649962565241527,-0.6022403959864095,-2.162660707215819,1.6370640070451195,1.2656728801591282,1.2650313880868973,-0.8513455369530829
0.32783166435992395,0.6784959607143736,-0.872828149786058,0.8338026929169908,0.9883006734820949,0.9614528918210357,0.5795944071240687,0.6955611334623067
0.17022254550546256,0.149027782247121,0.6880922703063542,-0.521042463289802,-0.9603776834101629,-0.6632147401798087,-0.41730152806112686,-0.13089546068857985
-0.6920072545539531,-0.2352471200231058,-1.4326516814191748,-0.047288955754125415,-0.8692251278100375,-0.8751080408625459,-0.5205111126587235,-0.888413795927697
-0.8007651185296368,1.4293530396615466,0.06255513357303658,1.1203080362554498,0.8271198263302761,0.18118699669517438,0.12312693395711626,-0.936512781604733
-0.6856424957365664,1.5459254166371843,0.2664475358256648,0.2959782804122016,-0.8511170911081172,-0.2624314859901144,1.109299574437107,0.7013676610154397
2.28897847000014,-0.11653257094920084,-1.60185217781139,-1.410175898554181,-0.8247779377108746,1.1046019034776913,0.28303063543361456,0.2249711829394893
0.19578596189887307,-0.34992072543457853,0.07452428255948666,-0.6419607991130981,0.6046102179680719,0.44969761024461674,0.4211569672951347,0.0014771609922116969
-1.1110416868500852,-0.5980305465095658,-0.5849453006623856,-1.3424183662999993,1.2594701180978547,-0.879104012288184,-0.9366812916924327,-1.3106324905635691
-1.0042941208844225,-1.2049364593070144,0.9468761316048724,0.48813346809565644,-1.1045949593273243,2.7776384519393273,-0.21180154460603415,-0.47397313472816444
1.509096058223996,-0.17843103092015772,-0.07701685026361002,1.7665997201940902,0.32393183254347085,0.8895015558803939,2.5957320781478463,1.6463257300022853
-0.25965940837600554,-0.5058426675389127,1.1929116828068123,0.07651867644255717,0.4392225518761383,3.0634452276292987,-0.6130496066272882,-0.7007118344262795
1.272436061528801,-0.23235735325485743,-0.9143819210430244,-0.39099947703170196,0.2046764779666916,-0.5144134822982597,-0.2847759459928565,1.506570483908229
-1.285206400774639,-0.4272594725320811,-1.374900436792009,-2.475786845101559,1.2540790172897944,0.16653146881003353,1.0774313785467797,-1.256661806151343
-0.46094523914534624,-0.24713879143138062,2.8849599864106334,-0.19279229629994313,-0.800928793566913,-0.4938371879716612,1.877036230708343,-0.2341332939296084
-2.679025814060269,0.1707356775742239,0.1995654633738505,0.71550932330526,-0.7472199009251913,-0.0635572285191549,-1.2923942208477308,-0.5198252261880272
-0.22720230442869482,1.7189323171008892,3.217152897257105,-0.9641812721444754,0.14369717922394637,0.9607972994053986,1.0568538772980303,-0.07594094645905429
0.25679114780784923,-1.1336491856084423,1.4358425908560561,1.5222529045123714,-0.05142874812047853,1.0681943829291833,0.6442477151736632,-0.3603530383762026
0.7187346816791957,1.2825403326777003,1.7000009055167793,0.23213359296687566,-1.150727253640622,-1.4620949349523675,-0.20583557187823284,-0.7575338912466194
0.7587965529802685,-0.23156216969002824,-1.1005680392009536,-0.5503308238073936,0.16098180241701032,0.9565806297191397,-1.3433086906648113,1.2646939542246076
1.805190127142768,-0.5487031840831502,-0.6445514713326143,1.5934118347171045,0.5851484747125643,1.0275957129183317,-1.3569500340303366,-0.4806963098443909
-0.2124553921897894,1.1977988914243825,-0.33901027128560646,0.29684417535906843,-0.7095191498684473,1.4156467931786922,0.2160771575874816,0.008868564535881212
1.0324514318022129,-0.204847108652524,1.0650810199126013,1.2350295702466423,-0.034263543074489096,1.2891010823427427,1.4779620555589938,1.2190315199198645
0.7858940778905753,-1.0556191015748673,0.48751647494795236,-0.2120092953137625,0.4026249406001861,-2.347273633928156,-0.10748050757335713,-1.8146138893144015
-1.8486838715654288,-0.11195243392094824,-1.0634995990327938,1.5226616577178747,-0.5905636950693581,-0.056390590789146836,0.05093009836858356,-0.0623236074880845
-0.9896145979282683,1.1844160199139746,-0.7963897409988996,0.8141630930198104,-1.070863904604207,-0.5396368118375894,0.3547303407895981,-0.998070810972827
-0.2526666077195582,1.7411396027461739,1.3397988481714787,-0.005686379449524175,-0.14123449758351775,0.2804040676009938,0.05726927567961627,-0.5961532929048964
-0.795112586750165,0.7569026405418819,1.1612085996654666,-1.3605944115855204,1.1730331274506953,-1.4742355577049124,0.5699338412395495,0.555428960872908
-1.9032106574102208,-1.9801033543041704,0.6260196033058157,-0.1980756373958742,0.5119746744803232,-0.5792430427019419,-0.34135608576128923,-1.0191595088410068
0.2927256223591666,-0.2529170093000423,-0.3691205334043369,-1.5882579174045772,0.4343929298744789,0.11585965063473999,-0.22365873006780151,-1.452381157307037
-0.08544031259906898,-1.004084228382807,0.11816106766467398,1.4142142424168092,1.8169813402555606,-0.9016205015813721,-0.32820424889283845,-0.9850941259109589
1.2414388136027976,-0.6583795599219938,-0.01786809245716579,1.338289593697112,-1.7755021699305864,-0.28110293562774774,-2.5531313561989144,0.9993807842893917
1.3383490627758943,-1.5314146867097704,0.7012038259332484,1.5692274562424962,-0.7432825011735117,0.7269581951251354,0.11517685739883526,2.0835116194594447
1.5008139340403153,-1.5908251098299102,1.0563402716604746,0.632178138422034,-0.3825742669125578,-2.422522660289515,0.9917338681736582,0.3466197538263463
-2.119538551514789,1.7921547971171743,-1.2779159568552398,-0.5364773770504099,1.6412230661115363,1.6343465493966727,-1.0271851781964227,-1.2554103759831137
-0.15814609584223419,-0.1513884415776265,1.1063581507885734,1.7927625705150574,-0.17045011124491152,-1.2550885340655853,0.9349595176028267,0.3079518525954539
-0.13754196831285204,-0.663912586867867,-1.0320363210971812,0.19810476191237175,-0.8119437023303667,0.705288591507912,-0.8839281596421511,-0.29440619839742127
-1.0303055636623983,1.3210787732686546,1.1293512051896195,-3.266918858445133,1.9800174342644628,-0.5643861692699041,-0.13840981599137547,-1.1433021921254856
1.30723792601684,0.6149647295572039,0.1660048554418185,-1.415893116647551,0.130639291419316,0.38871331176707286,0.9380630592523158,0.6561614369000474
-0.2866497580632804,-0.17368054658333246,-0.17951866751952694,0.9866471621235642,2.6258428921480483,-0.49379742441839514,1.3756650480261745,2.0309522086547855
0.7217439067351916,-0.6378027546679379,0.10179614920374448,-0.6515239408285095,2.3046925288635274,0.47666113283911266,0.8635381322556984,-0.5756253411816467
1.14208784810681,0.08855049883726158,-1.6064380319214804,-0.35162757660073035,0.3304348207100621,0.1584292044094725,-1.410252249671267,-1.3336560925346097
-0.10591483383678317,0.7778171431438498,1.0727447995991246,-0.3946580804960749,-0.6624297776418154,1.2984972170942315,-1.2638872047892964,-1.8894719303310876
-1.3376857676549119,-0.3182951007669121,0.6100297134072517,0.7566001361796907,-0.9300790840916512,-1.6839843733254636,-0.14544159825568914,-0.9580133950680362
1.029446507702878,-0.25793992607204835,0.5886438767983854,1.4679375054647088,1.4042033720617213,-0.04114947559290749,-2.0398265090066325,0.22340571517269733
1.1820964105733842,-0.7818615883342468,2.162274751401773,-0.9317992174664967,0.589571364942776,-0.28842633899109527,0.043228868531079344,0.5965714041940642
-0.6949956327349163,0.31469104097799855,-0.02748527195233331,-1.1351379230800687,-0.9481144294010629,-0.539708220491448,1.81334960754098,-0.6724197278237678
-1.3373373362963932,-0.5810273543221578,1.1832192057414093,1.151535857561933,0.1130047409013688,-1.1702133748017902,-0.8689504162889803,0.24229131340742616
-0.9441241648183756,-0.9779555939171739,0.5257240051404453,-1.4830164093521414,0.14734468692905878,-1.6766225216400306,-1.2272545697130925,0.9317704000546415
0.8307140568020172,0.5798572593606914,0.2807540719977219,-0.49989549145790574,-0.1888372218302964,1.9948678310971044,-0.5340577747096571,-0.24478807502207045
0.5376817978258938,-0.6965353377329455,-1.2890655194148173,0.6774132230448731,0.24780535943623022,0.03361641700442413,-0.8836369530737965,-0.6893754103992354
-0.08051334742835276,0.3578371108151968,0.7977997101553668,0.9720732925016677,-0.7294161636318389,0.6571321934470655,-1.397145856571655,0.8120162816089771
-0.9118843650105224,-0.03355822959517631,-0.2649449269583941,-0.7161653743595173,-1.8756889696368901,0.05698159011116352,0.20191237015102786,-0.9517533763464404
0.3008393750833143,-0.6639842876935994,0.023900491281621913,1.0186084548779646,1.964818776591927,-1.7011582450808802,1.521159027363385,-0.06262905012705064
-0.8942251175605628,0.39957711425890075,0.08854235290260304,-0.5603967543473712,-1.5754476113076235,-0.36770633943320014,-1.4563838461828047,-1.308537042313779
-1.4303303662093039,0.9541585205274926,-0.6716502282554863,-0.08303530576411129,0.10809798513447585,-1.180711721537454,-0.30569814856779054,0.5374108019553158
-0.12219069380760712,0.7266928659073695,1.0865461884498586,-0.5088426353324951,0.7244346190458189,-0.5070766287063061,0.1269218822110066,0.8205869404907109
0.16080063610545167,0.04546222781645173,2.0417956035382074,2.473859667350064,-1.143822119665399,-0.3183830004070483,1.5767313056327499,-1.2156791099539634
0.9739619759423002,0.17206810680007095,2.3848152616673586,-1.7025138102177564,-0.41670583008641887,-0.2593079067095349,0.8585689745758206,-0.48181956583772917
0.2645193961585446,-0.7427409886258173,-1.3344129166072154,-0.74719180184018,0.21693927973737648,-0.630557073248605,-0.9682351931409184,0.7045178465451323
-0.7862878713364078,1.3254149894291345,1.1720431556764412,0.9688926011922678,0.46748167089349457,0.8428374389314203,0.13494357608764712,1.9238736543247557
1.6748421475833286,-2.105472898236748,-1.841355897791765,0.9798287310740245,1.2432342802659917,0.18017823043795303,2.3807325258797736,-0.009086129517284833
-0.8522191921673532,-0.07663343877155138,1.5243600394538883,0.09870589617169462,2.0353785604551207,-1.9294702608609007,0.18203331664376587,0.8776464345675687
0.6808408807109925,0.05678258901772442,0.6072643138259934,-0.8031069507090465,-0.6198217248239691,-0.48027354230446206,0.13219402392176674,1.8244329517928146
0.15205390997060694,1.4037912501321883,1.0624075453703823,-2.6933181844905265,1.056543058916368,0.9710681970480224,-0.5714808385291804,0.5198958698451341
0.6296806285245359,-1.096779212713548,0.8525244221425162,0.17017930278122484,0.2191905527248519,0.5817335906393555,-1.3921255265101022,-0.9996280853316591
0.5535032491289624,1.254159662229427,-0.663771345262564,0.8668681081901279,-0.1883806014345733,-0.3895388399760258,0.3513307956642204,-1.4928522017570085
0.18010029200066546,-1.4012084438145105,-0.9234270778418272,0.4517735924067219,-0.08551657539312232,-0.6744506814627431,0.3964718610581975,-1.2695514209525298
-0.7127012537604147,-0.03957251825062481,0.9932494147246623,-0.539960074313522,-1.207333347438421,-1.247324089519043,-0.17036694236058356,0.2283367504481542
-1.4213135608776284,-0.6199061740600605,0.21403614063280166,-1.5582234913338375,-0.048099838671278,0.895331862966432,0.5288763519353483,0.21334535315890432
-0.2055531423526335,0.29779855243324727,0.09135746832357361,-0.07275396215308082,-1.0893848520853961,1.2039345472748655,0.8476457309592362,0.8920509393261251
0.23595102872853996,-0.43339748445242854,-0.40831084406497703,0.01422324229714412,0.9582210791369192,-0.6559770339735214,0.12313198077412076,0.488095481191878
0.6639414161275564,0.26049219773726756,-1.9033716523448776,-1.3042928843472579,1.9517170591230169,-0.9404409878321299,-0.8218886825603033,-3.539884160911886
0.7983624411131329,-2.145060585206379,-0.42843823996171326,0.02641603915696765,-0.5899987985977955,-1.1160244996652737,-1.046157252545347,-0.03792547062685532
0.12632936682370516,-0.5080185669397689,-0.47578560253677266,-0.48345057181684625,0.13616019168644367,1.11837315982341,0.9840728622790169,0.7344097518629411
0.2641677847777707,-0.2681967174284119,1.0451398230449351,0.6582234306444447,1.9753353105024198,-0.06510978026647274,1.140362276329243,0.2773094895556644
0.6813490062656216,-0.1613258193468602,-0.5551194391010663,0.9163871570698526,-0.6989798612696754,-0.4586860976397329,0.7372837212300105,-1.6162358061852604
0.9001377773137399,1.4550238696842186,0.6579765974124558,0.6290710622069372,-0.5371104134734287,-0.35924806677933846,-0.10133170274592129,0.48063408407277197
-2.515640239206644,-1.7042054187749884,0.12262110925886469,-0.6093821717899192,1.2326221288042352,-1.1628541823234633,-0.3523035284815032,-2.062745486037909
1.4390210705124868,1.0384622068195748,-0.7659382465823096,0.8677935454283298,-0.3172146830799584,0.6188147630315789,1.0591473956451174,-0.03235319274812488
0.27370516153915225,-0.6677769197360937,-0.6939774295865074,-0.5727952417655993,-0.6325596039563767,-0.8397283108466381,-0.09842351981108971,-0.5054967734523734
-0.6107730917270315,1.2555141152472358,-0.37009906220108474,-2.536611637230569,-0.3234744107079527,-1.5224812056590702,-2.0298872833939616,0.15727878008250895
-0.009737763467675652,-2.031961559430272,-0.2445000495195022,0.9369138899844359,0.32166997638280725,-0.5779289038617351,-1.375375756755252,0.3846645460120366
0.5255125806144705,0.060186242041195825,0.662570283970181,2.3091533589521336,0.3143450775609463,0.4852712213567717,-0.4881484414281402,0.6981654158867792
-1.4643869753328655,-1.4536097471488378,-0.7490375699661777,1.1091784782561893,0.8462185310610785,-0.7906330348263559,-0.11144447798941826,-0.3544291163555605
1.6936100005057473,-0.22500172190544096,0.31832910117355656,0.8903532465652201,0.569918153729491,1.513269345472549,0.7107708203291776,-0.7436178416241674
-1.4716547745419406,1.3991435700833568,-0.21289994369737278,-0.5201533814610861,-0.5493799074701687,-2.366734964042837,1.8897618063552621,0.43018090096279626
-0.4320993082843338,-0.9058862071014625,1.3981695809193533,0.7355770180060529,0.19187937601458752,0.8761227234789647,-0.29538174082972185,-0.2882359608616492
1.271261975488998,-0.08653235001094085,-1.0928371713061538,0.9993577828089508,-0.31174761106485976,0.5304770812787126,-0.367742154174232,0.9221773332360822
-0.48566643036940566,-0.32403521107846295,-0.8150614199460964,0.11607013694663619,-1.5966282691610243,-0.8098740414638617,1.0665746140519763,1.0947727220850838
-1.0814438992861697,0.4035843111329145,0.03299216993435011,0.3280774363756163,-0.7327022933793412,-0.12874898014314348,-0.6282170041047149,0.0571923327685208
1.6032941757564105,1.1807722061483474,-1.1268229240734882,0.43177702836183207,-1.319011488850316,-1.6624344257342965,-0.2580080918559024,-1.699629597421459
-0.8827078454369649,-0.3449903851182918,1.0802889082426375,1.4545039847664025,0.5288507123468192,-0.1644927299741069,-0.538234705194364,0.6607409651895905
-0.5678216679000333,1.2539839440429124,-0.046861355117874794,0.336353001534187,0.6266500116483782,-1.0493346693424808,0.18907123492700748,-0.5873300674441951
-1.9090349112990816,-2.3519604653601727,1.2890801522747135,0.31415787355789293,-1.995437920771909,0.7561562279905724,1.0758939445765028,1.3742249246100326
1.0354398047376518,0.9163504575903006,-0.599124690560407,-0.5654200927659058,1.8290598914307714,0.3091220314165015,-0.33598494814413027,1.4100735473107597
-0.6350553423520068,0.29733357363268725,0.6880139449392184,-0.6967934263798211,1.0632718224974176,0.90367890732661,0.7947626136191142,-0.08591204999635521
-1.134880689994853,0.35601632994872223,0.2103443086564965,0.6965298658549323,0.3059500671640604,-0.25452587178010533,-0.6818268619446647,0.9593391455166927
0.42135800953672825,0.44963242066095455,-0.49505448740240987,-0.18331007971459415,0.6961454626384601,0.4639597471749443,0.447023482391588,-0.5178571866229075
-1.273159827339425,-0.8648497640417768,1.3189049385213785,0.528227599553421,-1.8546190775035825,0.5060400399547016,0.6458216720570212,1.2170967533092916
1.111779048697273,-0.11023038285667411,-0.700623680254293,-0.43493288567990773,-0.12378594867428983,-0.7960395795864768,-0.1343887726634389,0.8204654425701211
0.5475725091459538,0.976967407152683,0.4759560308609226,0.7111308540987703,0.908583537101088,-0.6541069761467647,-0.5242742246017345,-0.6016924262849096
-0.8494225275417016,-1.3322691080153082,0.19136563676322949,-1.85087201080368,-1.159940822630376,-0.5418161790753558,0.9894153628148051,-0.4573403824718881
0.6954981006658796,-0.18129219003876837,-0.18962748190353293,-0.007396204522968567,2.0029613528788817,-0.2702476076267198,-0.84269673465171,1.4158134251557288
1.325488207494321,-0.4088509448636206,-0.652388280404362,0.6733607746530094,1.9900376287213875,-0.2866031112850447,-1.040349120758074,0.48028842962628276
-0.5887933040483179,2.910571731526107,0.824284107353401,0.6945331728168298,-0.037700684082758,0.8169254168888367,-0.1478373075211435,-0.14870750891331525
-1.1951247292008536,-0.6712569850228862,-1.0139906339140827,-1.0100311459401616,-0.16302948536946216,-0.8302832744978467,0.8925441445627541,1.1025084322014798
0.9849541996853375,0.3453814399051604,0.07775597652216928,0.38204152861784396,1.8911450437670423,0.5550841606531257,-0.9055694242210321,-1.6494371713428877
0.4332680196456504,0.7658218885130171,-1.2812257315885753,-0.3552012638878293,0.1783605253759034,-0.9554846673226867,-1.2423446303966696,-0.4028192138022451
-0.17067653590194926,-0.9283901106163879,1.8180435974298714,0.2287155420889804,1.1845386950241599,-1.208192171712358,-0.8192696972497803,0.39419763267641333
0.7543731836785217,0.24368868441004082,0.6087096170827377,0.3113027426494924,1.7300372341321986,0.6188682226214319,0.8747778045025486,-0.19444384397205353
-0.6663807487910093,1.301306987103822,1.0787274196575716,-0.37332353251240363,-1.27514073930829,-0.3763955677627752,0.31617672799378,-0.7057442958030306
-0.43063095555027947,1.5085329062765125,2.267915895263449,-0.6063401767644381,-0.35643517772867384,0.5796329949780639,0.9418906450906388,-0.9701612598686447
1.0326064958648105,-0.6660875871340284,0.1586276763083481,-0.14508413042088097,-1.440130001369425,-0.9927427368465297,-1.068318169649746,-0.03224221318971713
1.1119971017231278,1.7249331534671046,0.43580034125894573,1.4649567801812113,0.8516565407221768,1.4848695233558347,-0.18715223476348666,-0.2970844038478991
0.45939785285135193,-0.1988764204683869,-0.985170786622673,0.05035343532683709,2.1174385773034325,-1.4538778075765004,0.6099664351141504,0.271773951061754
1.4993321503155759,-0.9693694640816898,-3.0656477281944965,0.6524927863161585,-1.240621974989592,0.8799755796674777,-0.3186719851054791,0.39640646688597453
-0.5175776478047672,0.03640902326104344,0.04845108633823545,-0.7719082401918776,-0.14767745528300627,-0.29879906695522424,-0.08818113786968212,-1.4787102834666654
-1.5339667918536617,1.4785386152160647,-0.6164300082042152,-0.23731710561199504,-1.2658736301245999,-1.048037640090184,0.6391005550258809,2.306156058764532
-0.7030756327141644,0.6751092998332529,-1.918136880399005,0.6027188266672773,-0.9841436457265433,-0.12386295253905824,-0.7932304791682494,0.4372727299981319
-0.25728528977042925,0.15702968714651838,0.7667699682307723,-0.4198467976350394,-1.253462689077553,0.9576578992174266,-0.49597169068302643,-1.0106732793757465
1.7153310888518156,-0.911959006571028,0.06813861061060937,1.3147421213027923,2.5128401498368134,1.2819969457994926,1.6779839094191629,-0.6092778895228026
-0.9961714730665806,-1.3258137561539982,0.44484801362259063,-1.293137677904919,0.06312786722343086,0.6191674823428697,-0.18283885890385423,0.24889333021238128
-0.8542615029586701,-0.6529925634404287,-0.7177448585022596,-0.3770223409592702,0.6261730573669859,-0.5027064220139384,1.9851974662536438,-0.06191437167096822
-0.8030703276822702,-0.7051115269004029,1.6628743044475556,-0.17751945905571886,0.9625213688294487,0.7120929684722334,-0.9488761181922368,-0.793432923492608
-0.9524912895627681,0.3474343695438702,-0.49606154845149303,0.7649156922785717,1.1369073465294537,0.31156446277719596,0.5355985533446059,1.1701757924771174
-1.5549964621820314,0.293009184247726,1.0167494433458297,0.6678927239021679,-0.019624820549850732,1.3409894512204172,-0.6794350498390204,-0.6557789130761964
-0.42742378546471294,-0.911128740381062,0.7455739028599164,0.0863579871300237,-0.4209617088804674,-0.6612522027052552,-0.037162747907140393,1.172227702435076
-0.9771758734844014,1.1928952736680065,0.9191771980033843,0.8881250766693328,1.0705228717369863,0.3644923931982201,-1.1634390263457448,0.9191035517733638
0.5112634897671333,0.11393062792872122,0.43126339285287846,0.8902516532423145,-0.7892026879526952,0.19155623002999364,-1.1021720823318495,0.010463827359076824
0.7477098854982991,-1.0672802325176156,-0.4870506843695617,-0.7467046110947144,-0.6385137171836757,-1.1153920454941628,-2.3498215375803877,-2.937401078168268
0.1437935874977813,-1.246088489731382,-0.12273357283845392,0.40251280456468524,0.243799525031205,-0.12556864070235838,1.6050376558991752,-0.1691535660618597
1.0993543064251274,0.11269053059588877,-1.1570601857488558,0.4594176787286953,-0.10031116278505833,-1.8720637744929427,0.5990921429837358,-0.8871848344183975
0.5789377646663926,-1.3689089335886606,0.1366815012325486,-1.113206047120713,0.025670473457495967,1.7753914070745265,0.0019528637576091655,0.12826238168392193
-0.22383611228471803,-0.3105522477224308,1.7096368900271446,-0.07317403332173839,0.5206065281903967,2.084125062366829,-0.2742988945693209,1.4975391054863805
-0.34194585788180876,0.08174706063392903,-1.1823032784766179,0.05990108034288627,0.9775571788269595,-2.110822973768941,0.9037893674769161,0.214375529373104
0.5278419900943438,0.779362546871589,0.49387305394928727,1.6365465596231192,1.6710845946613777,1.7110075300199319,-0.8800932532591139,0.018134538555542673
1.4016835494371234,-1.0309438270434168,0.9691501366689911,0.7173341311514612,-0.4562593795756635,1.8570908722898254,-0.4667031165847765,-0.32594908700608083
-0.08935635199230035,-1.3551609205469564,-1.9419971863010874,-2.2671515986152797,-1.1004435255090603,-1.5659537723816157,1.3474734436763716,0.5267357306698255
-0.024836066898740558,0.11075940001210553,-0.088198246952692,0.29025248432156053,0.6402273698486771,1.2918364083059188,0.42746073678831803,-0.4888549797712654
-0.2023301936066501,1.8809518118423858,-0.46075758399321465,-0.7509267243408764,1.4028985369909068,0.8714305523045481,0.4710922967471931,-0.16176579348495015
0.6153553377510885,1.3551268700912227,-0.171565445726277,2.7142422906958887,1.4763473270329197,-0.7779006205673582,0.5237322947794083,-1.4026388166051802
-1.760014949118417,1.3939150796872544,0.638914102453994,-0.14761033953395847,1.1618309493153949,-0.24221264795349348,0.0859569434256163,0.809792550933095
0.28274402718972075,-0.3105052204115021,-1.1322785186190738,-1.5162774896422244,0.6745316911522539,1.3622282729738162,-0.2998230334422911,0.37190751279185197
1.0669051711581468,-0.4987642880242902,0.4560239212120638,-1.0294001866735223,-0.28222675905490335,1.548518852060686,-1.0940444945700378,-1.048944469692011
0.4256546340119406,0.06876805708033404,0.1771072967292785,1.2332640838248023,-0.3332324183363399,0.43357430329389784,1.545330514214153,0.8076189765170154
0.19749594060124687,-1.635317714286843,0.002032063928696996,0.5310559356814291,-1.4449562697068101,-0.5815725631824862,-1.0744403789778376,-0.3155653580498339
-0.3017732436114126,-0.8966097686378642,-1.1342702841113685,2.3571431631545985,-0.4751333067423351,0.8507122327348934,-1.3750930187619435,0.6560183157123459
-1.3040742303368769,-0.6518386703448183,-0.37774341762497937,0.1509838347688146,0.48337087403271906,0.7101286073454403,0.02561338744319321,0.7439202102052799
-0.5863958096060903,-0.9350088114768997,-1.3741134746321704,0.9012469867486557,0.178435637381663,0.6115794400533636,-0.6358303901291217,-1.8885547069903166
-0.632294782127035,0.38942233115068037,-0.4207043673262776,-0.5341817713110639,1.9366468976894515,-0.736716756670654,-0.20285977325193807,1.7736533523999538
-0.020893707565075508,0.151813424046165,-1.3807129757862013,0.9700304069009779,-0.22287741779780107,-0.3021234844152525,-0.25210125411283985,0.8452594323659444
0.7145285395291606,-0.15067592910361421,-0.9014593299561146,0.7689978194953853,0.07111081297347288,-0.1560566270105754,-2.736716283897897,-1.3545290736572255
-0.2132214083565648,1.008045070653726,-1.5014081434813624,-0.8657504746203554,1.3836102316612866,0.20988457161637203,0.44145195278953375,1.9174721810885254
-0.43731851422334167,0.31384167830898,0.4790810229638395,-0.6600690824776962,1.292209860972026,1.9380435811467946,0.39270919217636435,0.4771482450329264
-0.9134004541662395,-0.6923477150131132,-0.5622718846928206,0.1194727268705785,0.2905105040944141,0.37609474935725085,0.5338829291363789,-0.2533810783334873
0.17444631768367605,1.7016625305410793,-1.3701989056877666,0.562049741588012,-1.6066336465989886,0.5334231255140185,-1.9308389522356657,0.3281241555749326
-0.08988394789087352,-0.9409527683332208,0.380263422213378,1.2292018122755888,-0.453705783083514,-0.38448298027651,1.2709801984452365,-0.429501360784556
-0.29158892507975215,0.4188486416839721,-0.17924480708724266,-0.023629740193256626,-0.5460053586775541,-1.9598711312541455,-0.053828349647095965,-0.5863731128609403
-0.5944431240730904,-0.025257169216668096,-0.5680356487872,0.29746204247188934,1.9926380053421386,0.8310367899455944,-0.383414223525909,0.36561541713077716
-0.3571798618219559,-1.0549341726619943,1.2874393230450059,-0.7242100099948756,1.2115251850403177,-0.11896392096895604,1.0598862825976405,-0.6934702530813088
-1.472063412137952,0.2522800806866704,-0.11786812525959738,0.9241859404551838,0.40129660000606876,-1.3307141377755858,-0.8823537280319247,-0.5183177332683065
-1.4563931215716914,1.8868200226037557,0.03336444826406968,1.1219664540909648,-1.5501614605365286,2.599991851965971,1.8147184732108084,-0.08532372672917943
-0.011541949699411606,-0.7981863287064014,0.3975220341545187,-0.5426553793709255,-0.43827264145485795,-1.4360582514287865,0.608053667068195,1.1365320787153252
1.2192029099555974,1.5774719654414218,0.92469888227321,0.8559259327725455,0.21642329528000173,0.8541468137907965,-0.8117113705876472,-0.22703077867918245
0.2631810503011762,-0.5029443605767587,0.6988600412071836,2.9386190149174727,0.9369637684628656,-1.713370616311726,-1.426473572776539,1.3852094290457648
0.33350550762714437,0.8321748052555419,-0.13116798763345483,0.8869980926289242,0.7590634164354016,0.15597311510195738,0.3204845995752584,1.0363973196850853
-0.5756129730902724,0.5612859969123539,0.8719634578380987,1.3670668443204559,0.6233221565270796,1.379528636252491,-2.634718999558483,-0.3241371322017267
0.7125595255099647,0.6458168977161192,-1.0315576727172797,0.13812988969176657,1.5652336296572489,-1.077772207558817,0.7237206874495165,-1.0543822971037105
-0.00975299619373076,0.44533860616084964,0.16687772964805453,-0.5167357395278387,-1.1756345379146453,0.9492580289372846,-1.3755558640538774,0.7623659055733727
0.9371899422597078,-0.11631878898047852,-0.11567665060581002,-0.19645780370934293,0.6458399629731048,-0.3894243140696846,1.2742819943005135,1.290623572933595
1.5076429216948752,0.555860448788416,0.3166976298145269,1.5815263875228995,0.577462239472528,0.796150655365929,0.3668696492912389,2.0838139609208217
1.0254036189805882,-1.5827881962760815,-0.9399171729269008,-0.13658033633982627,-1.722984859987012,0.4800857015081388,-0.17357986316033858,-0.23710449599468442
0.14394868516634807,-0.46120385067745406,1.0692892980613118,-0.8518643553264775,1.2580526984787719,-0.5572411170341904,0.3909730468914416,0.5968686263020958
0.016562305420379588,1.1524472688907499,-0.6179488294950459,0.08363538942558875,1.4577714748495536,-0.2553879201391635,-0.3085088320359413,0.6226224691365803
-0.5542049051308217,0.008886617854922537,0.8910100967771595,-0.138542799539443,-0.660654506807059,-1.9960778992546908,-0.4444366767832363,-0.6359712176017097
1.1262869778075142,2.118891381420366,0.0702440120906419,2.768075383401765,-1.7679111408925117,0.3567837228832405,0.1622942003718199,-0.07075540870325488
0.6557141576131841,-0.9417883965621054,0.3670015132723076,0.7886225286945214,-0.9785665690914541,-0.8411937167443,0.042904426366904704,-0.6484805177426096
-0.014885681490440226,-1.0877642168731403,1.197068774829909,-0.8836891213995486,-0.8634216740189898,-0.8869952531840207,-0.4229847199714941,-0.18654534815747023
1.035687950023368,0.37617931054511317,0.11513263152676714,0.14839487524093725,-0.11752891241720002,-0.878056075079308,0.2732050481316592,0.8301261442840469
1.5450560249588352,-0.9024929466901642,-0.4550630903985385,0.45588911388842207,0.41638729782119077,0.03113671815260499,-0.12319221067356516,0.43371164690476854
-0.24188033213059132,0.4507971142922038,-0.995284928149896,0.9873517100038736,0.44584270614342036,0.29107986903608846,0.8587085620475003,-0.09018701360743384
0.4318089532456019,-1.6629964586059354,0.4043309975820117,1.959942108145034,-0.2307475165727048,0.018912214727025967,-0.14493816072203694,0.34007852446507086
1.2924063343966823,-0.45707628457624366,0.5757271566257437,0.7360336903648266,0.4058056398968283,-0.587957058166853,0.45289553429529855,0.5171344595902172
-1.0598809792537844,1.7259823406335402,-0.9100787257128883,0.23344588965074567,1.597076533284467,1.3696632519891931,-0.38924090753436197,0.6763280887663498
-1.3350920750814657,2.1595488066901285,1.2054689656418076,-0.09512714577683921,2.014133647941874,-0.21968006643730423,0.30483990139298583,0.013376868369084737
-0.32621493792553935,1.459276397316524,-0.3031193460360422,-0.9978187576399613,0.15190857041001418,-1.366868561610845,0.4311416131188024,1.2382731715330768
-0.8481967335855717,0.5437321869605531,-0.6711315250191576,-0.49835905240533934,-0.5370558198263793,-0.6306642885973534,1.5319779801898785,-0.13734041440753603
1.3600115048484207,-1.198411233316595,-0.08192390871270903,-0.6256565965234375,-1.550491410996554,-1.0708473462483243,-0.9502674790478486,1.959410311912898
-0.0649884665824781,0.041174498242590424,-0.4130652814597046,0.36010842424030093,-0.7287267150219958,0.6537365578118813,0.38450817627281436,0.6103596340274406
-0.8605768176710805,-1.0816451168213115,1.0601759354115046,-0.02336199753453256,2.5238648741375616,0.2375591164422139,-1.032402516235395,0.5149230901583784
1.0894838006264025,1.323414611539354,0.5283509972904405,-0.0032789231626058784,0.04090994715570646,-1.328904022981406,0.2256303693767827,-0.00995037892893894
-0.14060417332795128,-0.9073777280325885,0.6390655903390302,-1.1595173751971475,-0.5292934083096605,0.0660792467820706,1.3535390133912115,0.8222471730173503
0.9847456026874183,0.7497369596651888,-0.21461899869037498,-0.4631564228836092,-0.2797414771534618,0.9282909390762321,0.522888675409248,-0.270133583659059
-1.711644685868031,-0.42881337383194834,1.3164867371582056,0.19563901248049012,1.013455504870851,1.9579593746857835,2.2630980126868883,-1.1663475756395547
-0.3946168519941598,-0.7917502913558286,1.0441104375706027,1.2413878132613176,-0.3388898668976576,0.28584492174639536,1.1801964152076745,1.5438253147099847
0.09853095391961156,-0.8311986923970144,-1.6012914930756568,-0.3558866102920918,0.7743955275518531,-0.572478153026937,-1.2728010782044357,0.3320628057389117
0.053688325523904575,-0.6598229077662421,1.24486931533143,-2.9173277173543615,0.038053448953383286,1.4876634822469679,0.13532015492474195,-0.9650780566354755
-0.2623787677463811,-0.07781656150923576,-0.07885227606209255,0.09925970433077247,-0.4462306628942663,-1.134852491444736,0.37093075744992154,1.2767247177205348
-1.3562525308890714,0.8734214875985575,-0.547016709069785,0.11153229901918933,-0.6652681453397653,-0.27658382415254656,0.27440404585429107,0.9815920969408858
0.03605722512797568,1.5359389462982198,0.9369885962232369,-2.043938560293205,0.7686159442800219,-0.24944738264269356,0.8741142326721254,0.14254858685597221
0.18389969703363276,0.06722716612196154,0.6774021213441325,-0.2309193144186122,-0.37629232911387567,-1.428301024505352,1.1598138884751954,-0.20306414158177252
0.5898806460508873,1.9452009407807083,1.1759073155053512,-0.8949830307820527,-0.6901079216877242,-0.5375257946470399,-0.3668419221294208,0.8411034308585482
0.582486213263312,0.809509374656952,-2.1557752983918825,-1.1346201547086774,-0.19507169214272407,1.2314886560595961,0.3136567191740863,-0.05999525334152751
0.3973036205307254,-0.909699206007272,-0.2564717789802893,0.28251904300589337,-0.08771872130710928,2.0637253446594306,-0.3025194071104239,0.13873584391348734
-2.8676036030139023,0.2611814354558785,-1.0514580031044554,-1.5276063243171334,0.3411319475416938,0.30935668093650603,0.4537467545501141,1.1989591749122956
0.44209447251945794,-0.7094164585791649,-0.9401618605228672,-0.03534212927073021,0.01832630419958782,-0.0133905212587857,-0.48804274446395407,0.09877483721811384
0.04325653903369604,0.7136179957531311,0.08745131665940196,-0.5111612323226286,0.18370207328534352,1.7938927242238316,-1.1321550831215863,0.8036131234440621
0.33669531866276364,-0.6436197231798867,-1.0818403462618216,0.3454045951627043,1.0316014671758302,-0.9343282925829065,-0.7912270578227499,-0.19840464427523322
0.3793392245883133,-1.2018842234625455,-0.9911935270546086,-0.03779102442384257,0.6665087576565074,-1.1438864813327227,-1.926344054707544,-2.089638596272483
0.2928313798470123,1.0125046923643253,-0.15547582194601794,-0.6755743943694411,1.0535528428488377,0.0784883543904154,-1.7235109667613715,-0.11884695227444339
-0.8220929096025084,0.32349472326998846,0.5275441737078385,1.8878041946696782,-0.22585768135164483,-1.6068142482621426,2.5484286072145794,-0.811463536243727
0.20253393860508384,-0.771603599487206,-1.7098532510497912,-0.8580577300591228,0.015598211356766171,-0.9324634995642028,-0.3623731215751671,0.610300592258218
-0.16700428052076177,-0.44131410582644015,1.314513389242887,0.5952381329199888,-0.3151481305120499,0.18270127448545778,0.29888715120950937,0.6961487643539309
-0.5426396685023978,0.6332702800725092,0.6110365185236816,0.8225623779185528,-1.2624368214469466,0.6286356957292804,-0.416582236845966,-0.34741396476120506
-1.870921790010983,1.218629733168896,-1.6256734362774714,-1.3528672358736695,-0.6819853733775766,2.6132861470711393,2.1917589950791343,-0.22722169542855186
-0.5955374358191825,0.20487602472592037,-0.619616832543323,0.014511033623118529,0.17011686469536424,-0.03578724575750007,-0.3260561840255199,0.22477771571739702
0.5081915979961396,-1.930999743822719,-0.06560842901485149,0.18317261345998173,0.7556357120488837,2.194868107246508,1.6497878923886435,-0.31293526962924856
-0.8073771074201922,1.3682408213796313,-2.0640659001227917,2.7361459198162534,-0.08807976991791286,2.0244599346230436,-0.3970301404904402,-0.6945290593148825
-0.39563532364875686,-0.4242004169158997,0.6873044350486012,-0.19188681183164416,1.5294393454243889,-1.7925234470679008,0.44983946323359064,1.345324039092551
1.5680088581202254,-0.9444356267265631,-0.4454179983208928,-0.4384118514006507,-1.4204160265221664,-1.5983741260543352,-1.2901198848150357,-0.29394986524538613
1.4305891005104496,0.2005316628002007,-0.8888839598373031,1.1105669320050333,0.13297634113041898,-0.648918532853214,-1.1529407226369484,-1.4453660071478298
-0.41214275436954834,-0.14975684280341106,1.2556338493561365,0.14729744073684356,-0.7563269070223628,1.5608995036698425,0.6812949690830069,-0.32595735119247615
0.20395885776005307,0.41355888064270435,-0.04832510011309403,0.6134401320644914,-1.187096242189884,-0.13729114806435144,-0.6616482042368782,-0.7547641035691073
0.8863420022990302,1.1583936829434665,0.4186774544320387,-0.8026896031187556,1.3539476457473851,-1.663622939845163,-0.6915496420710764,-1.3007285059549392
1.2525266979755736,1.19262429314392,-0.7857411265840308,-0.2139988145364614,2.722895354493109,2.2936098853605693,1.172938003548102,1.1062351870515377
-1.0714319695118975,0.8453606166508205,2.4162495561108686,-0.520378502685248,-0.8279122640413362,-0.22413889341573606,1.1751127129877086,-2.245881818718971
-0.8305004091216435,-0.6895120601918118,-0.11919374735544287,-2.539077825897295,-1.7078209941205853,0.405272822068283,-0.36985387269235975,-0.8479954148943889
1.5817039245814943,0.8601846438487762,-0.07393059943421365,0.08346468126932535,0.4738876751582247,3.171428323973697,1.440904033602807,0.1670672443890428
-0.2970202946458243,-1.3644311391737758,0.5889373959757649,-3.462353531088291,-2.3998507921025194,-1.7918041583735882,0.8729104616020765,-1.458214019674923
-0.20380144376371903,-1.3964277113218604,-0.9061277794698698,-0.1542498571384543,-0.6594494109218013,-0.5478002410784396,-0.5916944157889292,0.7275409980631937
2.4556258094794385,-0.7374045548723895,0.6085667602076658,-0.864745863658018,-2.08569587085331,-1.0161150976316788,0.46787452059001705,-1.3192392127491075
2.188779075735067,-1.6321141920779307,1.2387938677847086,0.649890108236935,1.9507148348375656,0.042358555482945426,0.45608995786625234,-0.611639280243446
-0.012613525684495886,-0.7973131790483408,0.37966441983488314,2.4208116943239064,-0.7141596386053688,1.5912207027647858,-1.9851136682962922,1.0673971158860265
1.4621078531560139,-1.6866171716718723,-1.5603662001330763,0.3826662743553778,-1.595746102122183,1.113123586589737,0.5411342836231565,-0.006211155657134171
1.1630873076342672,-0.3859640953374425,0.8437621471916477,0.31138657583013307,-2.1760094115324335,1.4879248489055228,-1.3362911973707463,-0.9774028889924792
1.274934253585463,1.205994297805345,0.12720358978265542,-2.2642522206912896,-0.4334513007314088,0.304216932899323,-0.20892790042927203,0.2509160027620254
-0.9863048362444052,0.20509613329065546,0.2889748541299341,0.14572340081970692,-2.0134721998434255,0.039689016024164206,-0.37891582211261615,-0.25735657231363823
-0.5161192668954951,1.0610717182856526,-0.2418444980493896,1.4955272800483477,-1.0128315257502831,0.3789586251352509,1.4655263726297056,0.875318286858182
-1.5990502597727052,-0.15268001791978444,-0.635384499582329,-0.030301794744718467,-0.6341812237577485,-1.4369682191022586,-0.9540509823207332,-1.2990279698612246
-0.8306354657320105,0.32833222358330577,-0.1321343954858597,1.1205068570190906,-0.7362339280819395,0.18285226547304315,1.17481244651006,0.34563488367707546
-0.41640088364112315,-0.9516795063729905,-1.7928518449944346,-1.0598088716697511,-0.34577748300176087,0.49254886074530807,-1.3187653304793245,-1.0709014206810092
0.6567003822157412,-0.23704965351407606,0.7822430223999454,-0.524378399363808,0.28372921868485923,-2.2247784638158903,0.44504571403240395,1.213839894610613
-1.2581125075011428,-0.23683201132064102,-0.3535567347898245,0.8140319124591117,0.7014512486639144,-0.7525294761002105,-0.0542200497233149,1.1903221641950352
0.4271920288288664,-1.865131014657448,0.15131353223507563,-0.3783676334239528,-1.2409256877319463,1.265905634907981,-1.89240071472789,1.2942718322056581
-0.8286582453001714,-0.39192807400993124,-0.4013805191885704,-1.5357396300470774,0.7476092446651922,0.9372671779046645,-1.2825095774014732,1.3702293949803375
-0.8805749363632244,0.07773107710654677,0.5826370622175031,0.5075620135623504,-0.24938101047369457,0.1551314297560357,0.5437000871733805,0.6168170904411251
-0.9994445454923362,-1.1515944967618326,-0.6195689541258345,2.2153280458692914,0.014791042079996973,2.1887053049458407,2.292790942560198,-0.2187146245100927
-1.593812344816328,-1.7769696829171102,0.24836533214978088,0.838937282273539,1.3598079281512465,0.579258912144536,-2.8447845423696827,0.6213479067216008
0.13419057535058623,-0.5170891244092835,0.7788072658639754,2.482389685939207,1.621835123129952,-0.5022657883871845,0.007747950418376244,-0.06245809815881062
-0.9406164312443656,0.5796338855140782,0.5438717578627369,-1.1706690750380049,0.30503150916787375,-0.8742703341437333,1.6408096215076664,1.2545411322409155
-1.2940446104778585,1.7558394885751236,-0.5095542634339697,2.411492425452934,-0.4412435926422493,0.16481429529526082,-0.1229248442201307,0.8408275519759503
0.8107442106506838,-1.2593972103335214,-2.153264372382857,-1.4169137431898438,-2.1843262800297145,-0.629787233414847,-0.7677989657672932,-0.3226632985177063
0.35771873776841107,-0.08168135442166131,0.7371185852606817,1.8964806364419873,-0.5797843070814622,-1.2261369957005728,0.2383807698491435,0.12129018159171794
-2.2161973365647167,0.49647294118502105,-2.422861260158311,-0.31759379203316856,0.6378997674441743,-0.58362078987525,-0.5366665931006671,1.297618291765089
-1.0734727406344358,-1.634860238026119,-1.7669138138167302,0.14133208341706563,0.1471274337436182,0.4072739891597314,0.5556981552049658,-1.1769536339312263
-2.390803017224018,0.039917801811063185,0.061020657511803765,0.9116221960012388,-0.5862116795884239,-0.12214805641714042,0.3912356553417851,-0.9742847988889539
-0.8130268029997783,-0.4365745344326291,0.35647298222555557,-1.4863366961278108,-0.9560471092720852,-0.6036718554157865,1.3735463300673523,1.9614081217774244
0.28971481625873463,-0.618683752424464,1.1816685929361286,-0.6670790297882413,-0.10434347328794889,1.3221163791178563,-0.5151238865325504,1.1558069511242817
1.0126000199441294,0.1520890956864678,-2.3516328394741737,-0.002767462914522024,-0.6326198824616914,-1.2587392199141865,1.8659732460408562,-0.34175079543034115
1.1091897642039332,-0.9449498685688736,0.11568191253277312,-0.3563900447960017,-1.4572011215497187,-0.24257298151041237,0.5243155058123627,0.1285112989572768
0.7144924577329844,0.4558660229207935,0.5035137352543311,0.9473423997057705,1.0137740428118465,-0.09719990054707227,-0.5673428078563132,0.5457734829630037
-0.2522315211855593,0.7065138986335622,0.12977425383032262,-0.9241037580615896,-0.07979585987902872,-0.8418557268895814,-0.44509066133529973,1.0987586931212434
-0.17514903719540784,0.12046103064870566,0.009978929206484993,-1.25952966823835,0.6056817305131927,0.9155613900465909,2.2661902427312923,-0.6615705943599771
-2.017843712211764,-0.10532685459646342,0.7856841764229053,0.09764320864811105,0.4611980828045864,0.5046535838150468,-0.7075086271380505,-0.3995762542463345
-1.1289352969322866,-0.5768968562265009,-2.0112271715087755,0.8922199904178298,-0.7207208014281921,0.8613200491346592,0.8510972349064302,1.3530384295446547
2.2477035290840677,-0.8835976552689959,-0.9793149565405477,0.41418267053489993,-0.33287970654071747,-0.24269041818903,0.90739674794724,0.1448809545399255
0.23480928240270474,-1.0866450682221522,-0.6583946118461312,-0.23984655767579446,-0.7901518418574329,0.028716204400222715,0.3911281786736578,-0.9032084902667917
-0.025212254094860075,0.3008997746868294,-0.5866604789028824,0.7001397359933987,-0.3422948537001288,-0.8158140563438725,1.4965856064684457,-0.54233642585595
-1.3569657960176897,-0.5075436211344796,-0.8136880046068402,-0.04433855766737869,0.8700816348776237,0.03368511848633567,-0.2851688903991702,-0.2205823285949526
-0.31710949842117314,0.29798996699961594,-0.5505684396514318,-1.5195809750222937,-0.4370665694482281,-0.9904186590087009,1.055132652659162,0.062331575724935924
-1.2337102234578794,0.2037184268917924,-0.9259326620712137,-2.158035153210554,0.7424761077132843,-0.12102299937377767,0.3993097941638916,-0.9020347640156942
-0.20378766145454624,-0.31376572319725016,1.5164722485681086,-0.7949347232683674,-0.9700875492368138,0.45123119421238356,0.2656343532947728,0.16049744657728354
-1.5325131278179807,0.015533277673775854,0.006365998827505077,-0.6745022833472792,-0.17720167640602624,0.2504995861640379,0.7449078749944288,1.5169474143854766
0.15453521246946034,0.18535692016140937,1.2138777836920627,-0.16749128723199555,-0.19937753336056865,-0.025447439252213443,-0.5280792963736771,0.6901237817878282
-2.3529248365985542,-1.28302985193776,0.7356038139441302,0.8422384617207589,-0.655294788157727,0.6193639843197417,0.5658420510219909,-1.0016066324468818
0.2851992217282962,1.3276728112758913,-0.05437223665546543,-0.5511066121661444,-0.6051970714394892,-0.45087531034484846,0.8587505544998768,0.8637016937000253
-1.0198020177818095,0.8078316596287028,-0.9853376060603122,-0.08115107524914308,-0.6875336938671829,0.9481968679571787,1.2812360246841883,-0.16210453077879577
-0.1805200283823571,0.0006748963704670139,1.1459624317561707,-0.7946715175433384,-0.41303320094087775,1.274323240887347,-0.0787575148719084,1.1014134291577897
-0.6355451673591559,2.0006663975255403,0.6119228229547491,-0.7667549510462605,-0.03436899579645802,-0.9098784800938338,-0.3863726524556538,-1.3444760838886944
-0.2592214080805106,-0.908353741275844,-1.1777507633888,-0.4980084692810619,0.40505146505264433,-0.47311600273358145,0.6434243997594449,-0.6852100581377589
0.2480136821040707,-0.2871605335824475,-0.6673864205316559,0.06595657085567358,-1.4509393575753204,-0.18840257435711516,-2.4198267136915237,0.42896979381012046
2.178335720225429,0.7264095097377152,-0.8426969620536211,-0.2590586517294828,-0.49881688811145225,1.5343231738266454,0.6584364243408636,-0.39267667803621065
0.4119932537700441,0.08524727363152731,1.4738993664977575,0.7169809264687405,-0.7624762092996746,-0.38545930938274425,-1.3183028548109634,-0.5910801014480771
2.2406395366215945,0.19321876375959698,1.0516684329851955,0.25317939878571905,-0.09774381050177594,-0.4593637771812497,1.1689013186674404,-0.7284927999607803
-1.326063240947121,-1.80777775286207,0.7331969114788408,1.1365650553288136,1.341822120154678,0.592827896852224,0.17124060219117632,-0.5400416573666009
-0.6200423107173709,-0.2457294365062984,1.7010005135307225,-0.18125570602838012,1.6135326644817032,-0.03766713200863379,0.022349276203073448,-0.7681157096169711
0.5391217892981839,-0.02280094119592264,0.6653689594694642,-1.2299648508038965,0.8368923770378272,0.692812211844524,-0.7261503712764121,2.796123233735893
-0.3459669108100042,0.25513287484116015,0.5541188646006563,-0.5827304760646296,0.35286907798597067,-0.6168678885216796,0.05192493632213541,0.1831199477601973
-0.05373652455078136,-0.38940361827395403,1.5034235318552631,0.7599536688427391,-0.17459452727668098,0.5953604600058524,-0.12161786703884696,-1.358563840810911
-0.01574755891078266,0.4251566510993367,-1.1479748933796223,0.5850065565543472,0.6862348947753595,0.11854439015923668,0.7297239491826982,-0.41281441585932366
0.6834579063563418,1.4279894844862295,2.019155937032663,-0.678141551064338,1.477173186047155,-0.6565120053862329,1.1438447872562465,-1.1123037848933055
0.26427117624814744,0.5409625138567858,1.414755279091479,-1.2615892507152098,-1.62827030315362,0.09088615281708608,0.5576731969901332,-2.8572935264817
-0.34795671480875073,1.8207140392547894,1.3668118512003624,0.09670758210118115,1.4022951710061902,-0.696764886226542,0.6115874010810058,-1.376095948517821
0.8719152406786458,-0.238768840643487,1.3621880774141635,1.1564196459596565,0.44650338322249516,-2.177985166129984,-0.5887909247975843,-0.19985578726750358
-0.3894520437254726,-0.8845306619513199,-0.7475000502268944,-0.513569632785241,-1.2541415645857235,-1.0680132882627378,-1.2924228073258002,1.7841215106696626
0.03201535192724369,-0.3907197434520704,0.8445879752741686,1.1327679276597724,-0.5658123921761087,0.7732871049043798,-1.4115665364599002,1.011688738355711
-0.690674862069836,-0.28026815025343504,-1.7801428879819625,-1.083619619992744,0.44151719146125834,0.02340726075529427,-1.7807504469019102,-2.264978536341427
1.6867533992483017,-0.12685546844318213,-0.2745911226428427,1.3595898000177646,0.5160903730635066,0.05186180207610646,0.15878060927362644,0.47854461124095965
0.4296737586881121,-1.2077276662103464,1.608845070035277,1.1945495058282818,-0.18573419325939627,-0.5276622820009595,-1.7659323443528405,-0.7184770529585787
1.017536303468225,0.548117489558158,-1.2394266194321109,0.7791351048784255,-0.014329827562637877,-7.768595643202208e-05,-0.22648875327456897,-0.3700739918489628
-0.1492230946994605,3.307417701087457,1.469494618230146,0.9701454255914909,0.2788280428922147,0.5154889280828853,2.972980550902126,0.8824769643180704
-0.014729941018454077,0.027889555480078262,-1.3686446858403398,-0.8517090390865769,-0.4922868138375047,-0.6599971653027311,-2.154873671695096,-0.6481685182928489
0.6607566829015235,-0.4309344868436575,-0.5899897421036447,1.5068564696814084,-1.542737453904221,-1.619399153479167,-0.9395092516269016,1.0202766175583993
1.3239358086547135,1.1322808781559357,0.7785781706041062,-0.38765255902324536,0.5146596247475067,-0.035739105040967896,-0.47293614821723307,0.4046209142886907
0.3098364218165335,0.1904442082498002,-0.4005445329514402,-0.46346004195117246,-1.6038315163686008,-0.8179914864709561,0.6213304914760385,1.0847407480141311
1.9577115241039098,-1.0636194971089765,0.6258857407901333,-0.5110493102263006,1.3453721875661717,-0.2752268539613434,-0.5796569948448508,-0.13004588007293166
-0.19382824166298573,-0.13391998427973423,0.09888493715198497,0.2920268779578294,0.8365821527417768,0.07490100280204567,-0.7632789152134668,0.4934540445955764
1.2351765024419983,-0.37594229856550193,0.8544076719092023,0.7406980669159842,0.6287460866961603,-2.4513212715350767,-1.2582111321062885,0.9529257643286593
-0.06749283699096377,0.9647769656993608,0.3825456224956518,1.1423200233612478,1.1429605905705664,-0.6926996338274568,0.7231632307234322,-0.222287198315686
1.4723156476475987,0.673264958382338,0.7645923650351839,0.848045857482333,-1.9024436664230866,0.4605698635567612,-1.7108289300613009,0.4550314750225938
-1.5873068498908691,0.8576417693837196,-0.624125707994614,-1.0391728682722903,0.28898872065369585,-0.8849859882195058,-0.8611598227778781,0.7894065434947664
-0.9150702930359191,-0.4434900048819784,-2.384482811331547,-0.10918788825061848,-1.038894641857509,0.7924968081998864,-0.9093777659444895,-0.240701546091919
0.07548943839630615,0.4244863102799827,0.19737630627220454,-0.21904968939746797,-0.6940640425995683,-0.8034638096220149,-3.018515084354754,-0.45798489434507694
-0.6487922433876707,0.9287695525616916,-0.5693602476409189,-0.13695532859386236,-0.40947530663144466,0.14976232910761966,-0.5212804173456267,0.5845360546020125
1.0010276478688342,-1.4007604651280918,0.3115643926331758,0.9305145743578763,1.2995999015854194,2.51748778365539,0.04074509383517771,-1.064993949732907
-1.3152374847750483,-0.5835801522620032,-0.9435147453687086,0.6421004675942165,-0.33239962002227674,-1.3555550514800667,-2.244964667558579,-0.09657656649856715
0.4987120901425948,-2.33824022864102,-0.9828654370270705,0.24216744981573016,1.5570946868018962,0.9847087320173697,1.009068308150716,0.5488016163604678
0.45571924465083197,0.08654469689714521,-0.5891625459785603,-0.4012793898697291,-1.1164150780893256,-0.7377055131889493,1.034750730720425,-1.605937353900813
0.33917694574463675,-0.6578644980221694,-0.21786920157126172,-0.41847893818380855,-0.1060976707700394,0.4295002454515496,0.26390090626365015,0.402424364895687
1.2852087452057686,1.0978885539505279,1.9450476401095798,0.4412644988837629,1.3220845955800813,0.4925396864234037,1.39562928977789,1.1752165776918453
-0.9639757412783586,3.266414276365736,1.598440145172562,-0.35571447143262186,1.009414713988442,0.15782682047846938,-1.2608748894803186,1.008220427356366
-0.3729300701460604,-0.7426359153657113,0.7486134481727735,-1.0217263036229578,-0.14746594546716202,0.0012391104799997436,-0.29318002838958185,-2.3872941494386573
0.12968062497239738,-1.32014676445233,1.4557737060701907,-0.1345444710663312,0.8149085437288078,-0.4023162359163896,0.528675457596505,-0.2713314471291176
-0.2790347655794689,-0.885093470326646,-1.2681932008101486,-0.9741111348311324,1.044865427471656,0.9881346181082513,0.5419606406098136,-0.9210273826602615
-0.11094600928847542,-0.11831857369340582,0.5760570866680452,0.29090306358113144,-1.1898129881066322,-0.5503701451639591,0.377884623859669,0.38181944338862706
-0.7013510319974985,-1.2424412529506843,0.9334151943231817,-0.3906822834398114,-0.6015141063909393,0.24339872656111022,-0.025670089073319503,-0.5510933376557129
-0.6463564687617604,-0.6995563903438975,1.043888748919473,0.3823294680737309,-0.2832014369519834,-0.949338037052737,-1.8714177924445154,-0.04741348553292396
-1.2484883791872166,-0.6331215076824089,0.8378915291406781,-0.6995801945543269,0.2835501336880818,0.4522378158775267,0.8179309763265865,0.48149030658380726
0.06023265248327266,0.42105472064232785,-1.5901712500182088,0.213898999949927,0.8788248652839848,-0.5755635644115313,1.5892497313620595,-0.32016817373312934
0.21596283946554243,-0.6665206663230601,-0.42237555474949223,1.0170111919399507,-2.6915543765110033,-0.32617868550406276,-0.844477977347596,-0.024501654993269815
0.07410074394396478,-0.28461529581223166,-1.0990700450020354,-0.7348131619664876,-0.11573256922999482,0.07104992864701835,-0.658826686802977,-1.1289122622317922
-0.7020944405216363,-0.21628139188592613,0.12449008489089353,0.69404589922512,1.317570204426818,1.5033493713770714,0.4433925941404628,-0.04048111844424705
-0.32662047440472686,1.5786172559528147,-0.28637966912656315,-0.3149355662354074,0.2892644510558349,-0.8692549787826339,-1.617708036351703,-0.8235471979718192
0.1122847454705537,-0.863543446649073,-1.4090294371692662,-0.44362730870247846,-0.24360481154611366,1.5466117286450518,-0.5619877912640608,-0.681145974609234
0.1891796278551735,-0.09761421480196995,-0.4240725663213669,0.2960356025240598,0.0963560258172079,-0.5191335374541601,-1.1981622426809446,0.011411233428150848
-1.1754069936419098,-0.3972523589018634,1.7467923774796508,-1.2891926631985424,0.8512484251200599,0.6065214699066261,0.45817023043638405,-0.12229480166923383
0.20255410253253553,1.9567525549448574,-0.03193445705451078,0.26725251152274226,1.1230876020440734,-0.14677454301450701,-2.601111126250724,0.3410456927441713
1.6299272439071448,-0.3486341445767959,0.9549646592281046,-0.8082737122451717,-1.5688766789502777,-0.5774279447608324,-0.8150983814523736,1.0589350620429119
-0.7531524653547241,-1.356751763951392,0.06985825913534117,-0.0909054774133996,-1.7942711583751751,0.6109483154990017,-0.5108387050239821,-0.6714055551010746
1.5642609051672234,0.35397482805138064,-0.40319052358759594,-0.6002333682828054,-0.4667446727762866,-2.381122984399087,-0.9126261145819337,0.5590188557683397
-0.1256721640556684,-0.9249904726064438,-1.553995332940646,-0.596063677579308,-0.06916257600837253,-0.08322204930609822,1.791650165387215,-1.0755639124391885
1.38083726811272,0.2892783600155186,1.8084227829550397,-1.5036137259387299,0.42233753080338127,-0.48068497371338564,-0.32432758233878556,-0.7082568954231541
-1.6797135062176995,1.5922475181592748,-0.5118900021750198,-1.8230073001379787,-0.7558312354438024,1.327235650657813,0.6312183992430984,-0.8966975358513667
-0.9050190835104123,-0.7122396274180218,-0.9009469276682168,0.17937467180642144,-2.0093473967961906,-0.2201103232259274,-1.4644988490719544,-0.5905420300235791
-0.22701075844033294,0.18108598725037195,1.625156089750128,0.08610825427632712,-0.09671569131134201,1.6005091939700988,-0.7548326147705674,0.7291840223182566
2.0168690201020576,-0.9176417654602848,0.6713894211085822,-0.11044083665872786,-1.1255470931665983,0.5632541983830023,1.4833601645942895,-0.7419367000270013
-0.4439156662587931,1.061911248207827,1.4899815127412226,-0.4932754119109,1.472078413613217,0.2858214384179443,0.8345853355228889,-0.7749979307956977
-1.3604831904076962,-0.16706486890604888,0.05083419500994446,-1.1178560392543968,1.7067762466633523,-0.568967750049609,-1.3881381454515607,-1.3786224152882904
-0.20687666159212803,0.4531957270664134,-1.8625392694147196,-0.5004107481006963,0.8282488328809938,0.3877716036022453,-0.47459062149487374,-0.7045159005689546
-1.249737156975539,0.3141126042327303,1.3404805275947926,0.10095475044809897,-0.48024179026145136,0.6036876646049143,-0.9477579242779035,-0.12501791075735774
0.7771034209982084,-1.1722243929703815,-0.38404187002665097,0.6686871090754555,0.2653069648818692,-1.143285656684008,-0.43988075154156747,-0.5846139500538391
0.8356087465506458,-0.3616883052620546,0.11515059070147585,0.3159224342551836,-1.0615742655508202,0.18092232391075985,1.4994381264497951,0.17739153803399277
0.0014152569183998472,-1.3690718358583047,-0.6852818530830281,0.985866207115638,0.1284903406268993,0.14308859028825394,-0.5856749157855276,0.5829908305946999
0.5438011018299426,1.36226320201292,0.7267123944083791,0.6630435461553129,1.0811251974781877,-1.4151899349738613,0.24504923645288365,-1.1051903900812525
0.45388547631359816,2.3380678271602937,0.27592982443366104,-1.1966458380777891,0.6854938478497683,-0.9258436409832914,0.36735776616209637,-0.24237113002461014
-1.0056273521939258,1.145946912464376,0.9418496249519147,1.5886257238390433,-0.34816775661841237,0.41624567267605106,0.14574512183940957,0.07768658166312055
0.6153728721794606,-0.4735399314633738,0.08358541566941201,-0.5632295384943589,0.9472314889639948,0.20814086987760627,-0.6823731121481238,-0.40161540238024274
1.1134452774042363,0.09012976001807126,0.5563454983525516,0.7772478157534382,1.621213868149965,0.7849257284010789,-0.20669542939615312,-1.0568080674094331
0.1504893863307337,0.12980842024582984,-0.2369447962942138,-0.4749772900365332,-0.2286003258925898,-0.024740463473100556,0.9560746126470726,-1.1809275551675182
-0.7527253093453944,0.6659858956448552,-1.4007759407070122,-0.77993645650841,0.6377992041044198,-0.9181656606947567,1.4550120973440572,0.32883218600818487
1.8570875071003303,1.1189246241711543,0.6553089973339216,0.10909113244483284,1.3445668599826164,-0.3830243101171551,1.6389352691642358,0.31656163740628024
-0.0058134366722440095,-0.028894882728355564,-1.595958724096993,1.2502618204799139,0.6263558687695899,0.8274269401059435,-1.6899842247686039,-0.6987256121337413
-2.491275464859384,-1.0197439173221992,0.8462062363396077,0.3958326209622753,-1.1236326925938325,0.6074921082780801,0.7751691146177117,2.8963691551024033
-1.3447723076369555,0.2644924671823924,-2.1261928995126684,-1.0919139280942458,-0.23118698888954667,2.6609800650261257,-1.5465410934361663,0.4758961825539845
2.505475268160805,-0.13306225695946694,-0.5965222588642197,-0.6371974609121632,-0.7796379068528507,0.5977035308032829,0.07100228330149218,-0.6721685923851058
0.3584503013472682,1.652202774843592,0.1594972845367529,0.48782883968201224,-0.16103908850324017,-2.348362185372711,0.4254914200337506,-1.2888562702053024
1.0441037180926636,-0.0766467061126792,0.24584095123564406,0.06006550680251864,-0.3753697586352892,-0.12856983602785127,-1.3865084901757068,-1.3060202621196997
-0.07025581497308683,0.4679874177407426,-1.3992726734584193,-0.6491070914020095,-1.3816788537263045,0.57439980015004,1.3333016985238892,1.4126716621364628
1.4086825347566934,0.32153985521710976,0.6284632042438998,-1.8267415733304115,0.5460872630736731,-1.7440404411882904,1.4996878051335403,0.6819231693586689
-0.9186550326417845,0.7194594230031627,0.25015756736604444,-0.5723793402835554,0.502074084875664,-1.5101737301642932,0.07345731396644822,-1.37543712915686
1.237305645027988,0.8109602616714654,0.35442366394596403,-1.1279409403558578,-0.11691080760950862,0.1167009815801977,0.6654040710339508,-0.5670177767932232
0.9844452172629172,0.27644903611521615,0.38549979481348223,-0.6969786476730129,-0.23758070250807165,0.11526830838510115,-0.4744670714875473,1.0914642141900295
0.19711248478876614,1.0306439370223204,0.4281354614451903,0.27868458080828673,0.5909532469644775,0.0176103007290398,0.10993124788470517,-0.8718028001977992
-1.9652498319698906,-0.4419455718899526,-2.2813489323388163,0.4361866185087041,-1.7753854535107245,0.31456521304036456,0.9742997179674507,0.020177823481949592
1.2862421209101205,-0.4405896464129458,-0.5668048742953817,-0.3655249467470902,-0.5643840585102641,0.2395129232101958,1.0674868760339111,-0.641063381971821
-0.07652107573925143,-0.05052384250162401,0.4826923288592492,0.2670448243499387,-0.6938536408342877,-1.947252008974565,-0.9758480200641603,-0.29789500293843707
0.30055293175018266,-0.8769852703598798,-0.9570324028841342,-0.7658951027074212,-0.15098436960811143,-0.1467269895083376,0.3721827077394061,1.4201718092950473
-1.0437700902022868,0.1839121535815362,-2.0584329941101362,1.2129852155480267,-1.7987546755520993,-2.6361179812432067,0.9098490606643999,0.3795331961191425
0.03683948956127637,0.9002389594326913,1.0023073865024807,-0.8755574464331323,-0.9442229115665334,1.6626427028149324,-0.75820162113773,-1.1082656778133875
0.3413840194465267,0.7979282282462163,-2.7632577384366366,0.42745912213473153,0.03954063734035262,0.35723651566381687,1.805028133425594,1.9067167384022028
-1.1051445376665412,0.6607191015558992,1.5107186846892715,-1.5269583258917059,-0.08028524608972702,-0.16021473626675298,0.0031236661500189137,-0.4876928080485666
0.1427957211760249,0.9383275532537041,1.0339600842538765,-0.81804761252561,-1.3056405590407187,-0.729515218409288,0.9456296958746873,0.24595229961378462
0.4712698717151713,-1.5899047597339373,0.8999175354009199,1.0168696263298185,1.445044727868341,-0.5625111464865065,0.02417283868946555,-0.32928096353796993
-0.6362441586976952,0.5738075186064895,0.24693978847570014,0.19176931948741296,-0.6456500335247468,-1.1395664077337944,-1.046148222893912,1.541740554300728
-1.0209771664231946,0.39984357050571745,0.7690983173423378,-1.1701270926266067,0.12710578426637753,-2.208851422273329,-1.1107895495896696,0.26399109458019665
-1.1607057403560572,0.43819179396606195,-0.7891078888897829,-1.2160949534000678,-1.2409812501605912,-0.37300572597324533,-2.157259345482638,-0.9343645014546746
-0.0011645600067750205,-1.5815516725104293,-1.0402666619718588,-0.5715480549154395,0.0796764474645555,1.2990881072031777,-0.6569311264377415,2.2057566739265577
1.9094704261030329,0.3616290562386773,-0.9942846292251389,-0.6142610288204401,0.1908807896619181,0.20169560245276877,0.6328556124399035,1.6280476661416483
0.7301474155298874,1.01399463934342,-0.7511729015654411,2.365499611230971,1.033918582484465,0.7022575039390382,0.6805278307048976,0.7114933502397707
-0.23099026419743413,-0.4333375237017944,-0.14785488646456013,-0.8356958068520227,-0.21878585166418046,0.6203292971925627,-0.6666172242853721,-0.3376527629973563
1.551550116944393,-0.2420497767768874,1.3300423265702666,2.191441891974701,0.8032312797103801,-0.5990913323843353,-0.06288306497350883,0.4015853115310965
-1.0938233177126362,-1.6635584812975102,-0.07448234891003443,0.5290600243194468,-0.5925459848378699,1.6505746686184215,2.656006551263661,-0.880353913573796
0.5647976836636377,-0.1553668708630951,-0.03385457038738475,-1.4175494027575706,-0.0818737275231239,-1.176518573138545,-0.25952335168495144,0.42727939549654503
0.6910126539425525,-1.6410614075185381,1.2384960577976016,0.5746714517926118,0.5850077902180719,-1.8720219163090734,1.2506416140160304,1.0275252837990143
-1.1737373296152214,-0.41109129973208025,0.13289116220477143,0.4840314216698235,-1.0094508960069728,1.944670274473594,-1.218170832078808,-0.4517730844904686
-1.3686975539402082,0.7729669817548058,-0.2516575414040001,-1.806310663630555,-0.37906530787228343,0.5921895806696572,0.4962031289270135,-0.18170607509923462
1.1957315921092375,-0.5742944872357203,-1.732050831164338,1.1471734337833268,1.1288192399213142,-2.131960548367501,0.25851034984036203,-1.3578159412537487
1.4786911006169867,-2.0468198077633826,0.40558667468722237,0.9804103677442105,-1.9462493989207394,0.5836545143400736,-0.14614453525198562,-0.6716478858258024
1.0460663975017133,0.4311138982037699,-1.9232156704866732,-0.5466945107869389,0.23780775551222133,-0.29270208661941854,-0.24217936992403982,-0.1333397866585157
1.4862014173854494,-1.6700356541119,0.8834896349221085,1.0447140509852129,0.5887766298383486,-0.9041555060628748,-1.0855354376548052,0.6934813127840218
-0.5266926615528464,-1.1919900674896424,3.3080298437043942,-1.5554941410127714,1.0477494646691201,-0.20430145863162671,0.2874336167971141,-0.7126180141071575
0.27565988545324166,0.7021435209882493,-0.3087570736013135,1.0436422766428965,0.04591557136825098,-0.2787668302913772,-1.065738362636332,0.8347441932278828
-0.04032150563859209,-0.605590595778107,2.759904871814209,0.7969779114675773,0.813933454826873,1.0818617851084353,-0.35223068461386037,1.4479621529104303
-0.7425587189723505,1.3149597712147885,-1.419537165735721,0.44725838938271334,0.1230497393326274,-1.5691132662875522,-0.348888117561297,1.0843775285130528
-1.1628730210402767,0.011352760493150526,1.7508614994759575,-0.9644452899702629,0.6583488673789781,-0.4484557677041259,1.304615822952139,-0.5643326755816206
0.4696234360350078,-1.0556479380241217,1.159532091163653,0.6875191316135465,-0.5060557688411425,-0.6576485477679804,0.6691068699226627,-0.004241385964905484
0.7011555825842746,0.07227021268502982,1.9594939972168277,-0.4940786343172589,0.3801259484017487,-0.9127619763489188,0.40830747360637887,0.5095644037081748
-0.9116563216692911,-0.5876335108183063,0.2288373252842338,-1.0892100631077708,0.5890555161165435,-0.4421374864709132,-0.04800446903053492,0.12694558146539586
2.019886526652135,-0.4460978731553481,-1.6825105352019585,-1.3097758237221235,-0.6075987937436002,-1.6076679151976057,0.19566565734935684,1.7586098580456067
-1.87487029722989,-1.271149050864815,-0.3851859022521065,0.07117537516957247,0.5076612852546315,-0.9157066357810824,0.9680773807402012,0.470402996286375
0.6807383821659563,0.30277478682802655,-0.5282487762339012,-0.6485283376518796,0.1580553370433947,3.074532267841664,0.5316638697923615,-1.5069045361329259
-0.47747531031423235,-0.07024605856724316,-0.7406496013854549,0.7395492702155776,-0.1935746895615755,-0.5796963044019742,-0.3668956534432601,-0.7747602446783954
1.3825298958839112,-0.1381040559760052,1.234606968041926,-1.561212329995845,-0.10816006802172146,-1.7805089955945608,-0.6839116768172945,-1.6009344700418957
0.1313663208469538,0.7633359306728466,-0.24715984610878136,-0.25653700203070817,-0.8104478871399731,1.7802474333267204,0.4691268718411611,0.5024801794989358
-0.9485582805269753,-1.5887497921088731,0.7196599553650407,0.6681420715767922,1.6125754448450376,0.6983264162819036,1.0654617379384712,-0.7872236511402739
0.6363822461638575,0.7980750468061041,-0.20440510173846346,-0.675213766322718,-1.648350167076519,1.835520475742322,0.743919435648163,1.3537449928884377
1.3597943305810098,0.022547203052088818,1.0506496770880278,-2.4194963759121646,0.8746070619495853,0.6769341967643326,-0.7187029542812733,1.3955422633112105
0.31347780107111606,-0.049858305731062695,0.20880249898729142,-1.5016665481426885,-0.9202030712895028,-0.5676365259950473,-1.5317292241210072,0.8159362999021724
-0.07275199027214073,2.0874899587681712,-1.0994920970215505,1.971963065250558,1.915192370218593,0.6446648113097401,-1.1744406745445162,0.4696610807699034
-0.3367637360880416,0.3210565609983043,0.5242676480574033,-1.3066427898325814,-0.5083338926865727,-0.3172951038377559,0.6701645008319955,1.5679075084044285
-0.12301757251454358,0.060339820045046164,-0.4061731594263175,-0.8808350126466648,0.5684257772022674,-0.27790388172081215,0.5675987413107715,-2.4581960155794413
-1.2765225508415163,0.4560825555880477,0.4099216368027209,-1.6726738646921413,-1.7811205408494186,-1.258713977913059,1.122062753872237,1.6179381665431851
-1.407903731756071,0.7582503073839578,1.6523860884311974,0.19564976714102592,-0.21745258556449215,0.2890607757264843,-0.1727121356526482,0.0688711544477109
-1.3326263394800701,-1.200163388025997,0.44885895497469325,1.8115153570381457,-0.25974062616113375,-0.2968178453202821,-1.3909160570253527,0.7975033862216058
0.08285258329529772,-0.24022736428263888,0.4396708698023124,-0.6358295107969724,0.4197848414078455,2.2533286883348644,1.4926426234874905,0.2440074432270656
-1.9045252081649537,0.8790260577957201,0.2746488166047609,2.055255313566525,-0.12279096452299537,-1.3443626644004798,0.3711900658882305,-0.1728307708883074
1.0316031451245329,-0.780262195145837,-0.6555139497314304,-0.3902806139959214,-1.2314411393680251,-0.11952250108904836,-1.6261847630782884,-1.7780134279228814
0.2164481629198496,0.3066153440241672,-0.2553915269173421,-0.28288640272268073,-1.6145510305913664,0.4197034507394411,0.45425962394091324,1.4639102430398108
-0.4834515522075873,0.05745552348322406,-1.2638833247524506,-0.46510395595759557,-0.4442088728556775,-0.30850417715911677,1.91023639072061,-1.5436107251430704
0.6229001465407965,0.6816013833491937,0.049848985566157016,-1.138045785651634,-0.4897925661124764,1.1785281013938929,-0.541202540764007,0.25283029779250243
0.00776656224585061,0.7627248932467183,0.03222543532459844,0.7941188846156657,-0.3549244526052521,-0.015144345911685458,1.1959894891924592,-0.364150717147456
1.1879154071115332,-0.11407014660860164,-1.234604256654871,-0.40572338729387025,-0.3046913664204802,-1.1693147927368883,-0.7549459605630808,0.6143625927608448
1.7843318653284295,1.9160725845459599,-0.06629740751899017,0.830546112951515,-0.7501881467420838,1.0975785545861587,1.9825457397592727,-0.7708787876177557
-0.20280028909698553,0.5904911747755196,-0.7596848061351702,0.9896328764908726,1.0467954940383064,0.5260216608899247,-1.2497960821374732,-1.2850222195735173
1.1285557885341784,-0.9322011446883929,-1.5364220686831682,0.29242514647459467,-0.4104735103000578,1.154314938930227,0.3548257181407351,1.6414835237959986
0.9575175067778,-0.913086259418583,0.18931600513222627,-0.7821829673276706,-0.6443641364161318,-0.7554691255125853,0.46333030848331785,1.8956339000556617
-0.017774151660208747,0.891975609974329,-0.29619415747398126,-1.9508174806471328,0.29511698198691216,2.3159387215915017,2.389288323288992,0.9428436286785817
-0.46890920145776205,-0.9977357741303868,-0.83515923570918,1.5914606042656627,-2.025683131386623,-0.7145904839269492,0.44965362530786845,1.07590988590486
0.2270992809142679,0.6012305978168652,-0.5448772117834765,0.6756999382840223,0.641799801722023,0.40242586476342695,0.20391006546143575,0.4852936707218716
-0.2518503157199417,-0.3296562082156039,0.4898648125480386,1.0473055943800336,-1.5904328029710522,0.6018199168247775,-0.1869711572731612,-1.1214774104885403
1.774573025385198,0.3990152983889705,0.716088078549981,-0.9703810898402984,0.5807757925355533,-0.9550181387217016,0.17058134226168586,-0.4564143681825489
0.9129871494246683,0.6665979020016826,0.639774001251709,-0.11091969336774175,-0.8868437318580019,0.6381390982840023,-0.4978088583250501,1.8669658264422526
0.44760992190895804,0.8162949761567163,-0.40133473249589074,-0.234324140297089,-0.2335885468169903,0.8734412222724307,0.47075917830270114,0.3896065462260729
-0.3377461830322112,-0.22557409222849714,-0.9859332661033804,-0.8203277552755897,0.40749585693952256,1.9459493577708031,0.12213861121548901,1.1096117962695928
-1.8939212225152566,-0.770566433129592,0.664175820455606,-0.4936032064292064,-0.7801449213533928,0.04999054647840684,0.5333553506307624,1.29629740317881
-0.8648639828719485,2.6909500912066453,0.13662736937767184,-1.647603428427967,1.7323773119593577,-0.7220175378509396,1.3187590025009226,0.26889516822704573
-0.7157114886449689,-2.7968489430613466,-1.9622329812761057,-1.4162153548403598,1.9757856143422696,-1.9907038491488884,0.43197914780940366,0.18126227051199184
0.875470535840413,0.699752643589102,1.7726533330323266,0.7724720653981829,0.3470368311643889,0.9148112779648732,0.3450600859298848,0.08083242395353764
-0.7448837490791328,-0.1512526886201876,-0.2588395706093585,-0.5609199988151049,-0.2309499788207748,1.1695187793885897,-0.09073346429790938,-1.529637314845724
0.43633435419956274,1.1055709336393555,0.7410648901963044,-0.5426959607221242,-1.1963281917866397,-0.1403262851611357,-0.5109211841403852,-0.6558929308408569
-0.14511912083420517,-1.298369002765392,1.4413903626995523,-0.6951430221288323,-0.03920205436389611,-0.30262960418849705,0.005079472798173796,0.3055729568222569
-0.6306337656623624,1.2236266899604669,1.166634526973928,0.31448488087100246,-0.48302916204475177,-0.3304208582843737,-0.38594400647345567,0.7735103092724167
1.4539085941764833,1.034909803885358,-0.2883537147222091,-0.3434784788036341,-0.11159612021374779,-0.1854305867178345,-1.127293599613419,-0.10664535769337155
-0.8039989340476166,-1.9672608370800266,-0.9424745065924164,0.5944974866713606,0.25098614241126116,-2.402164273392792,0.8328538128212912,-0.6024568255990717
-1.7622710547102391,-1.2294639384531603,0.9775964719807186,-0.3548382843232552,1.1273395190580537,1.4617339155622815,-0.003465458328933491,-0.8003244356196894
-0.24120953666321643,-0.9070966789099387,-2.0419400121004743,1.2014994053400787,-1.5432882918685797,0.1935304257379564,-0.03227210221599588,-0.8962887074332827
-0.8692237351214493,1.225944975201939,0.3361511307314321,0.36628895470426076,-0.8818928646640047,-1.9479869046601797,-1.8226133315991855,0.6069457081465705
-0.26905974790219755,-1.0895111068607115,-0.13473294264530744,-1.8584663271753432,-0.6641854474389676,1.2987908017022955,0.8077644741646051,-0.6885963260734924
0.6270045275166949,0.9070668155703282,0.384066936745356,0.965825761045592,0.32618264188217383,0.8005708328090834,-1.5528320139403105,0.1073868597509644
1.649975537959441,0.13412602907695245,0.052265353910591596,-0.03215537080540385,-0.08192321757443569,0.8130692704794371,0.04957303997797956,0.42815981452564017
0.4050433335596284,-0.5999959603230596,-0.2032148557553029,0.7253173720325371,0.7454032053148804,1.9137483244961775,0.3709178479168287,-1.6852249367229808
0.1448094736998799,-0.15394651766388892,0.37834626195486043,-0.5256536662097797,-1.4701212258419503,-0.6865513897507142,0.9756536675888671,0.36529829134893577
-1.6010336446494582,0.32845700947930423,0.0009372267360176427,1.5054722402012375,-1.0949193830706543,-0.8481480819579326,-1.5413791477567134,-0.13693090823532592
-0.4456771534836686,0.060678485779643625,-0.3095249327295562,-1.3939926951865254,0.0024075230576161588,-0.8428311044750377,1.0344177648084267,0.38831128632768275
0.8056099861214021,0.9151287814468784,0.398246910156636,-0.10592067833689336,-0.11011274555225906,0.0846693328280709,-1.088572516429884,2.266287291247945
-0.16988557303552576,0.7070355310309484,0.5599336081391842,-0.24914739692595608,1.0130466903086008,0.5036718091100475,0.26539872309920065,-3.243666474708041
0.37194275771412344,-2.537454239057352,-0.6760549964716392,2.0806069923318975,0.9417982260954968,-0.5729690349347248,-0.10823780335145641,-1.667610955974151
0.5758825835210878,-0.31704641471466666,-0.7618221567628731,0.6046468813751766,-0.30764657993032674,-1.7257512871778602,-1.2443383864625845,-0.8292038110500387
0.8299820468453226,-0.945564970996636,-2.2616194040993354,0.2571440278601496,0.3046241594188485,-0.2685427113386214,2.020691424825297,1.5592468745027468
1.8882567650922637,-0.46424756206873746,-0.3097970162980019,-0.6668898866743337,-0.5810316479573824,-0.6372897472604452,-0.36642727733556596,-0.6001982328281318
-0.21603483991529976,-1.266916543403996,-1.1214224362340355,0.014811972357561074,-1.1181750824442176,0.09551997327342053,0.26204212330058657,-2.046013372956842
-0.896145526393517,1.988276887777976,0.17232397461627,0.1608011366364412,-1.5798630850385402,-0.5385415507490277,-1.1596177765814346,-0.004635250921440095
0.823899353282081,-1.1550168445895388,0.3546499983190093,1.4573714867566387,-0.7125775332844361,-1.2496879518308588,-0.38187402409313986,0.675801312907536
0.727352651604997,-0.41693379824888105,-0.026679216508310306,-1.0599610114023201,0.48213950618901197,-0.3689025814985248,1.9255677960231956,0.6064906967793157
-0.422021678478005,-0.08071049694741818,-0.07772844505695821,0.3355153826693323,-0.4327809085678037,1.0445495062207821,2.1122817505541516,0.5677860030319793
0.15238481355595,-0.7375162172805715,1.9989052144156378,0.8384202993461275,0.7234334545594744,-0.10063968734310684,1.250683784186768,-0.49599667504734657
-0.529353072837469,1.3830986154949831,0.673029879388589,-1.0466707080957323,1.2534735648818718,0.0936734624166063,0.49000039272819484,-0.3979533523902156
-1.10657872147844,1.2022557748413703,-0.424436392015841,2.694938206946161,0.015171002004316921,-0.2134587356368766,0.2641104850775523,-1.7420548260638842
0.9505526918852581,0.6329266847723919,-0.932984112198662,-0.7233364385204558,-1.690498799461944,0.7870099645824594,-0.537882382636466,-1.6145347041178144
-0.21688851407991608,0.3786845246836893,-1.0667868118000208,-1.0921594243574975,0.4310401964555681,-1.9823325921244972,1.2956679699615534,0.5320311097620495
0.3090287337283835,-1.6230089743247216,0.7133989631322522,0.5382730093396849,2.0626294892157193,0.9910302367224464,0.02803793914624298,0.6425730048992416
1.0393152215707264,1.0762982162795045,1.1874260313832512,-0.38139640817806136,0.3812820940122386,-0.39100035425647317,-0.48435497791889737,-1.2430758387597207
1.128411174717679,-0.029611824106844983,-0.42131041238071465,0.12847456451379352,0.4847664137175748,-0.5537276809605378,-0.5021267391237019,0.9768449555714407
0.5578319058611899,-1.740678157727044,-0.5683735581453514,-1.0338197928371191,-0.9975047322819518,0.36953024132274753,-0.5289328148481462,0.37770732966470594
-0.3637355968228816,-0.7657959231430365,-1.9935710764096501,-2.2852501166106323,1.3536967922729246,1.7156133214143054,1.9384266994490527,1.2823173047904297
-1.7223622248855404,-0.39269417173392773,0.10861546456343671,0.32358362572265237,0.5952968420746835,0.4683116574731509,-0.863996173229888,0.831516730874605
0.7699662431085567,0.6433670208965301,1.8904311513426053,0.4418003670269969,1.1774615070737744,1.5267157203709876,0.34615407004178256,1.3096431825380777
0.9071502293301482,0.6841771926600638,-0.5681649716572971,-0.7307248672715523,-1.2372111915651187,-0.4562906910545108,-0.05736141838884089,0.6973952453994762
-0.3051862438783372,-1.0016600756653224,-1.0895416513877552,-0.5768647616538215,0.5060213323696953,-0.4508971237206828,-0.7875684588284052,0.9291906485933874
1.168183731874172,2.035121940337815,-0.7488680643810997,0.4668917031428807,-0.6983400481314279,0.5871109632491583,-0.590824358899076,-0.5982321871757788
-0.7714934894541294,0.5766639381684802,-0.7696902411404571,-0.05836901603771179,0.22679533071757313,-0.22028312407326947,-0.7608200498742285,-0.18844317919548847
1.034448433587269,1.0551227007199797,0.9813415553437449,-0.50879310862267,0.17201913608315797,1.1229269411709284,-0.1592665395623369,1.0135920933278117
-1.2974069318111485,-0.06517888970201609,0.3773189774275868,0.19576470030818657,1.797093357573272,-0.7848183846962449,0.25798435701464145,-1.125236912165099
-0.7893740662375356,2.746701202292738,0.9310543576720692,0.7097476253806366,0.7868446603133304,-0.9226039039406106,1.7490690578015564,-1.5310403498575338
-0.04184542665535,-1.0051368113652797,0.028902366315782597,-0.4832005445090808,-1.009152169290082,0.3065908787240047,1.1620054181981043,-0.19599367286998173
-0.04103257967785297,0.9962052442596387,-0.04350544378284395,1.4887294001522438,1.5720061323843944,1.8137270090388422,0.09141597327714059,-0.534351037688087
1.1139117671800713,-0.7447435572637304,0.9499963682584814,1.0591348007523653,0.06679124853486337,1.0728833843703967,0.2879576615828622,0.10597272568411391
-0.8820557753542193,0.06707398626817915,1.0881914794962062,-1.814621162723785,1.8448478482358497,0.6313937270541654,0.05378167976228488,0.26534517664013
-1.8163887875013867,0.2872744993007154,0.3040939334865899,0.49797497056342843,0.3541733121167504,1.0537160064949511,0.504369463128071,0.11787685927101006
-1.2200190416841161,-0.2032828095108592,1.7879242744214143,-0.7312359947376975,-0.04586118661518085,-1.244025010277247,-0.8396135539334183,0.04618773171010413
0.9515324359873603,-0.5747539901967305,0.4534266832906694,0.35705122436489967,1.0872865699194292,0.37922748933702355,1.027997301196019,0.6125730342444525
0.5140330699974919,-1.7738158796677592,-1.6574686747150775,0.1429384771758734,-1.1333944635914013,2.1890026278320565,0.7297959535416007,-0.4097745713875754
-1.524512455612214,0.20782911952107927,-0.3502684102313677,1.0369464486291269,-0.951661565809752,-1.5574527192995138,-0.058725716975736884,1.8837760949543296
2.1188530069957303,-1.325681042780023,-0.5054999747536294,-0.7770908618205052,-0.6121580064494475,-0.06988787784166843,-0.32408952724238693,0.40026221965470904
0.003867376827594007,1.099636685121379,-0.7884516941867554,0.8221066211046141,-1.3437429106601362,1.6341362217135418,-0.1065245918287992,0.8388583851428186
-1.256573698441674,-0.3384351707072049,0.9246551009165922,-1.9180726312085543,0.9585108785409605,-0.9467936508135457,0.37589025969447004,-0.5276450407684495
0.5667718509775392,-0.1307586539349126,0.2477074286175485,0.7605448459059753,1.8847495033207806,0.2324371606735772,-1.1848953532362931,0.881909664161587
0.23099634079468861,-0.019565902760394147,1.0570002951112303,-0.5140183193452872,-1.0024046482482174,0.8722919699740073,0.867375605086954,0.7796253375288537
-0.8795315623371167,1.8562742612304055,0.45204730652120806,0.5286473581131802,0.9104004565695409,-0.2506113131177846,-0.2230107824371387,0.9575057933556139
