1.616953333647398,0.9223522170071368,0.3929110191991549,-0.5557118789514556,-1.2441252858833498,-0.9147578202227926,-0.0012764317543497447,-0.781577505498964
0.6450944108666413,-0.5117935878317934,-1.2094957258193684,1.209180689541758,-0.07170944581750084,0.25385799681632326,0.7770231972251904,-0.094656585410215
-0.7745344606745103,-0.0172795098105913,-1.3157099462075168,-0.6799079556603406,0.1437626861877262,-0.5944291820722594,-0.5101347321491734,0.11355468215547118
0.7761073682237698,-0.830747981476066,-0.5911288107837719,-0.820430448640344,0.3572243127417011,0.6040865902897764,-0.4493278224778337,0.3323938272743885
0.40914794205556576,-1.9122340853436086,-2.284698216624071,0.570713886522048,0.8465857973377909,-2.6355662473589323,0.960283696468169,-0.44240917716777106
0.21590941025389165,-0.2708897774433841,1.8346173364996512,0.5731858371821001,2.415825362278111,-1.4124132626982957,-0.9690155127030919,0.09059312689925905
-0.14944719334361276,-0.9158670493335314,-0.2452365134897103,-1.587385188456735,-0.5367521612012806,-0.06301565648532689,-0.17326404331542655,0.5398400280190565
0.45498076122750253,-1.0309328670498632,-0.44520031826006456,0.017687403422810593,-0.6455122246479246,2.1276727997264575,-0.46650407673993893,-0.8973050646020129
-0.5449219610699377,0.6275438232701839,0.4035659232478442,-1.6818589333710443,2.191401842592171,0.08344765515017596,-0.5609203345723993,0.6333107687570886
-0.48725666720173416,0.15377977145647753,1.5928489471615226,0.5931819521805102,-1.3936569189672776,-0.6891200259760577,-0.9606201480917292,1.0544860528354336
-2.817795011363339,-0.34890497967844497,0.9625098880598946,1.1813890648940895,-1.1966505984616898,-0.5361988740451826,-0.7078685813271874,1.969536416506084
-2.5526072147941035,-1.4238236630036376,0.29246916257331335,-2.0085273896910625,1.5236701185270383,-1.5257661555466397,1.1975306222240794,2.308547367518128
-0.319284673863241,1.1410038551242243,-2.6631679158562545,-1.1231746443186166,-0.10134315719425328,-0.49171566004880995,0.35210022991549816,0.6218136148068865
-0.20876838985636736,-1.6631283208736427,-0.17917826663653405,0.21386264990034287,0.43794782237827334,0.36542828180791426,-1.3241528187678728,0.13672374352116706
0.16977413201049793,-0.9010143583045307,-2.1064922675274085,1.1466683850107386,2.494108478247801,0.6311324000621552,-0.6753269167077339,1.0474144045700398
1.5245043907197662,-0.3848819148426612,-1.0685439840515707,0.859377710066054,-1.0496832394290527,-0.27715553750291944,-0.8965670396662518,1.5325360714960707
-0.5774187431422988,-0.2315921169674069,-2.0902950012384465,-0.25731868950087133,0.18240726215926784,0.6748706540374128,-0.8885114439735519,-0.1977681452517588
-1.1296272162779875,-0.1903298630380661,-2.870038400564563,-0.4574802233634858,0.5205009341552805,0.7947938495759399,-0.6764341267814659,-1.1736749603909054
1.3146383562859245,-0.5220746693783185,0.28085382842377066,-0.5622825366230183,-0.05081521146915803,0.5559442191432846,1.7070895787214522,-1.700752042476575
-0.26490810344751875,0.1417743487417726,0.9852091934260359,1.4936712858040515,0.9352301796515591,-1.4986646533783645,1.8487163273915463,-0.9044416206121613
0.2124392925051149,0.09572106727060944,-0.2499190154500728,-0.9171201790635427,-1.2180763712292562,1.266657683400125,0.5273064163409757,0.0009688233651256432
0.32436505899926416,0.44527451958367587,-0.8084069515557171,-0.5542476179436208,0.33905085412266506,0.9842494155645243,1.2971195460294176,0.10465035443950713
-0.04140285135951043,0.12312173520071687,1.0071395947447563,0.569495063693707,0.6928094001113773,0.733815757983621,0.8260297694620727,-0.2697731448940655
0.7699172366726884,1.2057614397249214,-1.0714594408901925,0.5758914911960153,-0.5992198840318447,0.19168285981922048,-0.881961676448096,-0.5303537195752439
1.7739122326093681,0.44458508027264165,0.8242298803337138,0.23011058766453038,-0.4293453036496896,0.28503528911117076,0.43218556108176587,-0.47530301368142147
-0.6863101988903193,0.6848648938246434,0.8463217835343048,-0.28048387007944814,-0.5473332434179454,0.879477462542138,-1.0914636269870335,0.11391829013117132
-1.5145181632580398,-0.9953650357044206,-1.0766006486171946,1.1812480596972623,-0.0579075860027797,1.0383481663897067,0.14826384296164313,0.00919809294373971
-1.117350827716876,-0.45766128190380617,2.186939220635706,0.1580589211427264,-0.16134856167786416,-0.7648710354485857,1.2864815257719031,1.1437118159807669
-0.16995097124474395,2.748242977150489,-0.09977711419744388,-1.257465297590166,0.9444151358261652,0.31767199955124037,0.024682352995781098,-1.27083038468727
-0.1795721727106734,0.2099309410659001,-0.9541509195127786,0.5842092547877894,0.689276468334639,-0.7379276654699811,0.08657752507479367,0.8079414491512695
1.8093182445430953,0.0810642754091437,0.7764385936614626,1.6086048987588286,0.5537487227335408,2.1600941761145163,0.7890960562230741,0.6889322608162818
1.035253589095754,-0.47571089251517484,-0.18453486756233728,-0.5269466800159998,-1.1232757596108955,-1.33516611462975,0.6754461226604159,0.5836802266976209
-0.9230765854897147,0.44792736290618446,-0.8986520205823956,-0.5409563429541039,0.32326862276545665,-0.9686880112621787,1.7860589043153206,0.0031956657533551837
0.3289822712321468,-0.4887075420606624,-0.9523388039564331,0.8820172386852854,-0.2839684066884208,-1.1453076867236485,0.8523537243688065,-0.2099209090133685
0.692849195058877,-0.7560814673283498,-0.4107729099257918,-2.0726305854356246,0.37077817429398874,0.5114907127181816,0.21297280018989026,-0.5221411173090151
0.713259624334196,0.3575257920482062,0.5642315024558257,0.7967652602729522,1.6791918199795122,2.8665651350609527,-0.7498306520729862,1.9397860400243396
0.28465408378095314,-0.6965795880612707,-1.2598749013478596,-0.4852085984936214,-0.7430166699995099,0.47828840544457724,1.8672630596923854,0.29628592466169
0.5391924403763092,0.331060827378062,0.9983954751316776,0.5011143872060171,-2.0994148470446383,0.6999952284585198,0.8369820668951709,-0.2581299594844452
-0.01719586001002803,0.2768226112578065,1.5112708802139325,-0.9897435820645131,-0.21588613626160197,-0.7378456869813123,-0.47967763328510804,-0.506663094269194
-0.36292445638137777,-0.991199421699732,-0.42814049486687433,-0.7107837814368705,0.2872050624360212,0.6874931821657995,1.0027161284413189,0.10696999519720357
-0.9854160211935493,0.01605531194726582,0.11919435040728975,0.39287809522835165,1.931622140689509,1.4350701501376104,-0.30180287711109144,-0.00989850166192623
1.4447605747032632,-0.023907374017693248,0.21807046923428575,-0.316281073622177,0.3416294714525617,0.01771878667851758,-0.7333621663713812,-0.4344162076872654
-0.07768886934866585,-0.6025570362782766,-1.1749820921379783,1.5177985558644635,-0.24181356656430186,1.3580385001313844,2.103944289220465,-1.19519086447905
0.9937324577119615,0.16835888084448877,-0.6256807746659546,-0.37872079313188783,1.542418543517788,-0.24040323710868852,-0.3298032677120317,1.2905472902382953
1.462799921724021,-1.0855420071248172,0.572340087953939,1.0317389054462167,0.5989240760838871,1.7362102756150006,1.4732221025763612,0.7648445524594422
-1.245222483219582,0.7097046653113583,1.057507080474516,1.5578454029258175,0.8406355929925264,0.05984894328389676,2.7254313043902028,0.33114670176242383
-0.8952295218733912,0.5573542824861214,0.5559087190798345,-0.9907729836485559,-1.099094690356195,0.6608299005145021,0.588193294905911,-2.245313395278858
0.027356631137022927,-0.4158678606290588,0.2324200760372177,-0.5963567782080549,1.387271301480556,-0.28805840248297665,-0.6691506393957752,1.6226307064737187
2.31448828183504,0.5367002496998478,0.8175474833424956,0.3361982265756698,-0.5335222343247555,-0.8051479575371582,-1.2347289609137493,0.06145485469504558
0.8543907877163808,1.1457862120836695,-1.0206940174759258,-0.8946883704479088,-0.26714819801432077,-1.3931210657763418,-1.1759167363074916,-1.2720768672796912
0.3786797216255464,-3.2444898988530437,0.8472011372025996,0.2890580845921132,0.18549746798261021,-2.0159930268821205,-0.524372379817816,-0.6109661082950074
-0.8357943898060356,-0.43215776240485,-1.3641983071423147,0.17728851602162163,1.2907488957857154,0.0815442260324184,-3.144892679587782,-0.949975642365247
-0.7040491931659736,0.21873804651992462,0.9527542467181741,0.41459741021244734,-0.6243826150752704,1.0929977308254886,-0.2511833386930721,-1.6897030339485848
-0.6813422183755038,-0.31520779337955035,1.5226941810157817,-1.223987894262585,1.3468395221053986,-0.5754601460781011,-0.5877762291914777,-0.9610219477639071
-0.3980011391580152,-0.8535758182715966,-0.6830951040084234,-2.1165234497009373,0.4104785402435214,0.7078630815821336,-0.7169408972237566,0.24637848863630102
0.2222071905753424,0.51655724653082,-0.19742158235133025,-0.569958355092538,0.9635189898122738,1.0452177553615396,0.5411414695964453,0.7554758970730187
0.9620512450119526,-1.0548766021023699,-0.7737630764531199,1.189312842495297,0.7027310231829855,-0.6711976552434166,-1.4819725870556735,0.10631282452148332
-0.9548970235768468,0.27704926910526934,0.19273069216002886,1.2620972755774378,-1.0524679713284402,0.1397811921563341,-2.1316552032286467,0.36354269213272533
0.4579111801904492,-0.8321407248241538,-0.8876574488700413,0.4871301765666885,-0.5047691519486517,0.764052133201607,0.16359248092752937,0.25892341587364215
0.8951277377139516,1.387837719568825,0.1103049462542552,1.9200073366027777,0.3758804028180473,-0.7771787760832447,-0.9943658246438146,0.23121223082600745
-0.7997278632608885,-0.16906410728623558,0.6001027347010417,0.9466536528512468,-0.8159121509030789,-0.46455286572660714,-0.29241585482468446,0.4485509674903277
0.23820408808538657,-1.6084589956322708,-0.5433726021525944,-1.269865684802502,-0.5615580034838071,0.7597833385305289,-1.3997335058143228,0.9321421784373329
-0.2323963652792275,0.7728151650460271,-2.3652533259676805,0.9347127301367839,-0.5132498846746687,-0.16617055244227746,0.5600875065724362,1.416104989746574
-2.103722147573602,-2.2232699641543707,-0.0691436898699419,0.9903408837905888,0.005533141313216425,0.7558806790967976,1.1821972232600861,-1.1637004655049576
1.5931892144170177,0.05942281396679771,-0.8418746452115425,-0.8058417298404028,-1.4967756463469395,2.385427814909615,-1.6773795668303155,-0.26155364208591536
0.4740501919782969,-1.0442468453157312,-0.313965729777182,-0.11063180478256913,0.025375766763097222,-0.8589375134581995,1.5225164470171824,-0.42188198978046193
1.2797313034468516,-1.3619938129761142,1.6369043720734335,0.6389199854281234,-0.7959551977098502,0.35495888974038814,0.2090650318284085,-1.1163319608435776
-0.8690205899072214,-0.3233552516645259,-0.9732281887400345,-0.6621909018104364,1.689062691671278,0.944036651867096,-0.7215568449700759,-0.6895962326019165
0.7828130769253835,-0.5624643267140867,0.9864592116843313,0.6410526865534435,1.359682479824703,-0.9413225838269687,-0.0026468097629407843,0.6465541456958898
-1.3415077330320198,-0.03455964758494987,2.0219037116474863,-1.0280814383232773,-0.8992623832871146,0.38388816665179964,0.01880020589042419,-0.903849449552006
-1.1469923090888285,-1.0266395437225955,0.9485343097045872,1.0864822513091108,-0.2982394720129585,-0.7986957709158149,0.558786069868968,0.0525502943370509
0.4239013954006942,-0.2936082665402735,0.6673552213904297,-0.7847785399454189,-0.39449060512933015,-0.46099890050991144,0.4193360240270736,1.304360511795803
-1.301543083784275,0.08173561732934345,0.8334821003250369,-0.2528973331773314,0.7286910441604783,0.31453200465308645,1.2304283659913675,-0.5594572122276409
-0.3024440229164454,-0.7595647419917039,-0.6706628294729082,1.2153346813957089,-1.2073077756219517,-1.2795792855960664,-0.14509545382677244,-0.30723494419990777
0.5696898080997589,0.22274927769438477,-1.4162845306986083,-1.0332437026826897,-0.39486793424607547,-1.0108866362656372,-0.7142440951581516,0.574683673250547
0.20612630911805252,-1.1376094988294063,0.8878430750636295,-0.9912876503713985,0.04236445083087094,2.984043964729987,-0.7685725982229108,2.136405125552798
1.709175227665041,-2.1349668881963098,0.02616015169276611,0.30567914699340504,-0.24509069199775363,1.2868185553069331,-0.12376040343244918,-0.16391695269653545
-0.2971890341670674,0.07443006689455804,-1.576303611466962,1.8391353659910843,1.0070753980473053,-0.4772281489803719,0.8959348963518875,0.23875478463057057
-0.0755250069193403,1.1608044964451736,1.556062755645827,2.469115822353035,-0.059368790574009705,1.360888641778852,-0.3523624134448279,-0.6561541458879137
0.0274724162817829,-1.7099791223520187,-0.04472059493314392,1.931796556572808,-0.30065892179110904,-0.11445471023359342,0.8425219525909251,-0.4186249662791655
0.15164169961192697,-1.397835973608784,2.3991731439048976,-0.7146514205096777,0.1381123921331011,-0.9735767703879348,-0.1398422523755577,1.0645957278553528
-0.11318178926664305,-0.19497875686700172,1.3948169490361089,0.42755716217693485,0.9735734189626493,0.008208279305212885,0.4559972018882696,-2.6438084258141976
0.021662919768261304,-0.2855877822135228,1.2256928077224043,0.6377922042511971,0.791610958605443,-0.25552841763803275,-1.9279146317821685,0.3723184427943448
-0.5720721646292305,-1.5499100927471197,0.20240455578331384,-0.10800597403122947,-0.6285140219525847,1.3142750776798309,0.13665458573696254,-1.04447969778483
0.7508865599708354,0.7678586090587152,1.0990463239622035,-0.8542956744851843,-0.20936281599822015,1.1590924741101656,1.9349973974932317,-1.0881612309262778
-0.2863742197248495,-1.649800472943146,1.1137358884257522,-1.5359418984135105,2.2337887774096528,-1.3851776202028496,-0.9925768628254065,-2.9549309876069643
-1.8977774054376753,-1.0682328632551137,-0.2039552245344034,0.7579939898570428,-0.44953272998293153,0.27206640787898023,-0.19783145191674054,-0.25003601478427573
0.2186122560439968,0.6509638538097131,0.7966698250244081,-0.6441090521753413,-2.396782111370189,-0.9318906729771484,-0.03614923739975869,0.38194283959227465
0.367168689571704,0.10009547365296557,-0.5576889754769456,0.7364602369358936,0.44298297496517947,-2.663857452120282,-2.1928051787925873,-0.7991363783060335
0.36635422162294934,1.370308676761174,-1.5015387166238634,-1.6763128604316777,-0.6550841105411774,1.297761479411416,-0.1778191061487101,-1.028517322906618
-0.8824444016378368,-0.15010040277552947,0.057715777192587296,0.7974087916437573,-0.7317853491744506,-0.3197821528032603,-1.165109000038074,-1.5575836102479337
-0.8662920663579603,-1.0393388911258925,1.063340257943002,-0.4540429896685171,0.009527199888085858,2.7892095549665994,0.39253724980035615,0.09344658122863979
-1.0019455795255774,-2.0332753547975884,-0.4188749024363336,0.9746619226874143,-1.4992506970694,0.8976634865466256,1.098618255607551,-0.4264227802611239
0.8781335702285764,-1.1040326954558646,1.395444280010527,1.0315819162402615,0.543920817178937,1.041110422055902,-1.7428417995964387,0.7602335303505837
0.567926377379923,0.7694344254995915,-0.8780963273957891,-0.690612770128211,0.3918847204373127,-0.5565439233901641,1.982292709107979,0.18569523548151706
-0.22958729980333356,-0.06468477399482721,-1.210890419617815,-3.520330651737689,0.9066105836119149,1.1137501489335022,-0.3740653577218406,-0.1810894205350877
-0.3540881807703154,1.2963615301554816,-0.33180965113270516,-0.3817087031236002,1.3978524998176407,-0.1272886291948971,1.5494903429647553,0.6400409028292418
-2.0130573197773987,1.044492571982732,0.33384781975980854,-1.846804853740416,0.9236915901232904,0.7897422681432247,0.3611987924649122,1.2145957611081817
-0.7618118882016839,0.2621675438092661,0.10872010489532666,-2.9649710365688557,-2.199885995566976,-0.550360720596195,-0.6019133334515766,0.08696129739041791
1.8008013648270944,0.4559606167559883,1.4670891844249865,-0.7312050824082658,-1.0560722448423545,1.6101755900066197,-2.5955516129666574,-0.8940017820218078
-0.35047109799235465,0.38656240436084816,0.7083805515301659,-0.3978421496182187,-0.3155621415709865,-1.4474532958694688,1.470283200269047,-0.19667469150628714
-0.07846844665272765,-0.42155276185133583,-0.27919310532568264,0.6675932966089886,1.16977868465892,-1.218388805841788,0.21813861366451376,-1.6923069688511405
-0.23280187333703778,-0.06827172727104183,-0.16090076374732443,-1.0126726137243784,0.11591932527057454,-1.6888759759304495,-0.5011039671634162,-0.5935273591980261
-0.6299355385075702,-0.5198558340695864,-0.45187275017636164,-2.1924860284420946,1.3323246852135886,1.2718796784776023,-0.39274584871068924,0.4896103739723781
-0.2451181373990694,-2.1919645841015902,1.7724127166173702,-0.9577201232195955,-1.058454860619081,0.7649001484886923,0.2422418436877121,-1.2666680843097293
0.29562293724273553,-0.5438567067546701,-1.1778679914343861,0.22743196346873437,-0.06491140547613683,2.9926229380049283,1.6209888977664169,0.3536986220432029
1.0198861349318007,-0.8660318921818907,1.1072728695947684,1.2132282861412096,-0.7704038637117443,-0.6538886056182976,1.929332746335681,0.6832708763858744
-1.292851831953386,1.0326019727783615,-0.6486936135818261,-0.848837059834151,-0.320448429526657,-1.3221807186173147,0.4927190717580686,-2.2450330226525703
1.4168245551641052,-0.05503123741507576,-0.16367443999957634,-0.8300185563257451,0.06021956116584923,0.36327472775787684,-0.8517080514249498,0.09911866061982681
-1.543926406252511,0.8813100345480358,-1.1854613071731979,-0.9537552224328926,-0.874110516114634,0.41193640507607426,1.1526660317377089,-0.3273710775765225
0.06533750346348888,1.41031764539308,-0.11716061672385232,0.9023508608764136,0.9290834497587115,-0.18092122430111685,-0.5687326166573496,-0.35268689262149355
-0.7578212688196865,1.0787726400904243,-1.3532170075022474,0.9349131410960114,1.0791548284493537,0.9445039111680785,-0.4786156613268806,-0.038057580302327046
-0.11088674404918045,0.7990429071761596,1.4308667273139015,-0.8822747059552062,0.32836255979694035,-0.3708438561332204,1.2432206321687185,-0.8898613022248116
-1.4679746149249415,-1.8361994841974993,0.39726516099278425,0.5699483762355378,1.5343482658097067,0.7977988281907228,-0.13046087951385388,-0.4625985200026633
-0.2198160133487176,0.46335729841633944,0.2634728766508119,0.360108733318488,-0.7991011200308208,-0.13659614329496583,-1.1238862493367507,-1.0603862797563406
2.0817527200549746,1.6058359107475217,0.2052638079202355,-1.1846911605239214,-1.2922511459115167,-0.0022518829383705455,-0.8425929461701812,0.30746359513955
-1.1375868236950948,-0.48201899705278056,0.1451705151716504,0.2604125083565715,1.4183505784913488,0.7540120044932869,0.4763602137031627,-1.5024152043630468
0.32123690467836596,0.36592658964438624,0.09633173767957993,0.4741604492536688,-1.202169533359951,1.332774481620471,-0.4392666921006338,-1.668231111484613
-0.012694684735594724,-0.1262044091509988,-0.08067123243451224,0.30554734340800804,-0.9011357604775192,-0.10607770171366429,2.2864726703240543,0.4163368964748955
-0.8969200719984687,-0.11382734157428166,-0.05863394224352417,0.7962667815404405,-0.26879293962275497,0.1593428503625212,1.0258555412318249,1.1431003998185452
1.0551812974413113,0.32313237709321235,-0.8331954373930122,-0.09468168591443044,0.6293402686084874,-0.008953512318044319,-1.2972306251719157,-2.1832273512025973
2.522617809308013,0.12101399020128228,2.001915959146196,-0.07660804175511508,1.2542763081995854,-0.3694285900247992,-1.3986489972247955,-0.5014452434499361
-0.9195895538299865,0.08981086220106245,-0.0709212678473764,0.5017196331759499,-1.457266527780626,-0.44363123564111284,-0.11978734379512807,2.617991252475481
-1.0460148685654442,1.4174391438811,0.5559979677792645,-0.4524971177513795,1.1928110075158895,-0.502359800777441,0.2098568625305912,-1.954575278841063
-0.17031662931023678,0.7124011845061011,-0.21859205899440196,2.3213779733163964,-0.019504458171771797,-0.9308468953204446,0.028291898771263688,1.9589813943778949
-1.3528389403078835,1.1712906817235453,-1.3949121410774055,-1.0417923866273922,-0.8925747105543766,-0.3883786717141868,-0.08055589484862882,-0.8140940201566644
0.5721804380885639,-0.7452893926098065,0.5308722498404499,-2.614957922897043,-0.39837877586554676,0.40627826426293745,-0.7163569361124834,0.15580853982600443
-0.36321287535726365,0.32599641817817326,-0.8793840457056323,-0.12552106871685367,1.420015728275818,-0.5696523863867079,0.8024840330338582,-1.3009243370113972
-0.7553032148345501,0.24994340922640038,1.0795295223139107,0.5186829504266471,0.23745555643323168,1.3382374821223015,0.307030633520889,0.9450691805256994
-0.10530769637362303,-1.713646047972586,-1.8787904745844308,2.147925460092511,-0.8156570341495217,-0.475317734220952,-0.24866539649739125,-0.6322130025790154
-0.47590400033670976,0.05266952100138311,-0.27665444694392055,-0.2288399107984463,-0.6006192103520942,-1.1279653819040758,-0.49079601816199453,0.34576326796595724
-0.3159164575070894,0.45577855789511235,-0.19722472675069747,-1.640960514726949,-0.3118239102251168,0.46439237154500274,1.3161199512402753,0.650994799882977
2.0784143852926324,-0.6561974475199653,0.9454697902797441,-1.2278635015248127,-2.6707724777694506,1.6053744435523314,1.5783472781786723,-0.4351272030781807
-0.458098595523957,-0.7967933376345987,-0.7800833409593843,1.1155743587732234,-0.448240668450622,0.7640819694383338,1.183448112691134,-1.787058801334319
0.5679940290749997,-0.8492504441301534,-1.27818755225213,-0.9106296715310476,0.30434424007138094,0.7154645483889224,0.40550070975095875,2.1620484991153295
0.10292207332761288,-0.7514544271852333,0.5409710029735416,1.6713251973760748,-0.22184296604040163,-1.51103818202627,-0.6130189523387378,1.790445202593953
0.19353571512797346,0.9320511344255188,0.6675729628638348,-0.27047734809932095,-0.6170749527856428,0.3641192110068868,-0.370191284797275,-0.965719705409381
1.2450146638990658,1.2122292842064886,0.3941753001617551,1.1482492783503964,1.405658953495245,1.3311165849954807,0.89795771563615,0.5815670860864434
0.5189559453392446,0.3875651579020524,-0.2688658683421753,-2.8673910017033277,-0.09242700843880926,-0.3342690720281762,-1.0336902159095283,-0.18505687294558362
0.3033955919872422,-2.0603811273721915,-0.191548505327398,0.11278267751403855,-1.3276039993795294,0.17417404334517456,-1.3951166919130236,0.478622538940714
-1.8613047892361505,0.9702756513516698,-0.7828569444478913,-0.3042928751865088,-1.9491905344496727,2.1861819195724577,0.5466089621249541,0.7704876237825569
-0.49168617233820744,0.6149420613913672,-0.21145737513557397,-0.1395941005532764,0.3284010775806303,0.6134161320544523,0.917800674189476,-2.6347860109408643
0.5479927666964329,-0.0839489031232374,-0.11709141690668647,-0.2890326148591273,0.661632239783892,0.8252335723659052,0.8235051553499261,0.429038367041972
1.3435724891234517,-0.5027340800672916,0.8874748213085073,-1.2233818466917628,-0.46659495317961514,-0.3750857683781528,-1.8118932050169854,0.3436878394857913
0.2886087232615834,-0.017305492896157508,0.7663116064430638,0.9421932313575043,0.3212055368967598,0.609335607847591,-0.25578166962944365,0.5002080533171405
0.2840650006149699,-1.2874421392734936,-0.5512735748397974,-0.9752671824450992,0.6314224586486672,0.07726472857924557,-0.055141191651513495,-2.0144036721067358
0.37320857827905274,0.4157791566003617,0.39131546129626094,-0.05038006894403259,0.1373366012489553,0.43682718477879773,0.8817286445964451,-0.33530404710965056
0.17490136588635108,0.14844325738870603,1.3379601485233086,-0.5890502006285031,1.0119257902901497,-1.806174327103263,-0.7168473417133452,0.29469773411625766
-0.6813986623073659,-1.0024742064526024,-0.5193489942839188,-1.7330053864513921,1.108283735248948,0.719482733757853,0.14045746991995356,1.778957135894415
-0.2982571449600316,-0.5118939261050093,0.16576562210417425,-0.10250494219888832,0.9625446418938515,1.7286108087879004,1.539520140010765,-0.44121232060983206
2.1709038559218494,-0.8394073860514729,-0.8873654650627155,1.9896524812631713,-0.08176100950547588,0.34891183654148833,-1.1415094198858544,0.47572085333135555
1.190914472163311,-1.6638829667914405,0.3064011584541182,-1.0328674762702927,-0.08953495317312492,-0.2771082287160454,-0.3836164016167416,-0.846270829373544
-0.36206653025821195,0.4387268342738963,-0.9266762249403813,-2.503968752848033,-0.357844614346034,-0.48350407177388693,-0.6244964764287527,1.3423058631804696
0.18383503355032113,1.2135556549075188,2.01308254509766,-0.12449776906056505,1.3526973621269385,-0.4865353254798131,0.8621412405185914,-1.1874967907809382
-0.13682179431878538,0.4755924214400598,-0.6001315631101495,-0.5801251341902444,0.8791149083644405,1.573551616708531,1.1467205607754092,-1.6362378485956304
0.4665821107828776,0.09121258353234821,-0.32898439020109665,0.3463070805181155,0.04143876230052095,-0.2669996340971179,0.28833552951667735,0.3816432012825709
0.09181526287619071,0.4276974346211185,1.1617982452422546,1.9506000045276382,2.199062101273969,0.630586780473386,0.5761469750295082,0.9801965532938304
-0.5522893691059201,-0.5487701293997111,-1.127466201267332,0.014613849088569391,0.5365023468078871,-1.4827372851155487,0.830775407800744,0.2707703528173425
-0.8284578032363347,-1.1443106235113567,0.6926537065729343,-0.39906454189410656,1.1450321677144575,-1.1766100992330584,0.38334344171980805,-0.5280789508623529
0.2378722893732027,-0.010212243275625905,-0.15904569674273786,0.27466092772621786,0.028374548316984834,0.7054722475384992,-0.07244871199637991,-0.6976806481475
-0.5371501182056241,0.24923574680019137,0.22245041543216024,-0.3607346858886192,1.011422723612083,0.161775463353783,-1.0121054097929196,-0.7504367618373224
0.3027928027504632,-0.2377215796393959,-0.24592866217757958,-0.9829359300212411,1.4387741098433549,-0.663159337157784,1.9318797471644062,1.3628182763825623
-1.2416147621629676,-1.2232628389211473,0.5474503938866726,-0.18509534780415873,-0.44873971886354025,0.6656375677518145,-0.7162466763390083,-1.6203642113308458
-0.6471538390911553,-0.9095188572703167,-0.2185303709340809,0.06243193042722036,-0.9573774990619861,1.7342844860911597,0.6314821532762657,1.375572508597239
-0.9363011886857306,0.6063845866279106,-0.4987418955088055,0.36795440101722976,0.10130025619199087,0.602424761499782,0.0716401453067024,-0.8852079426484474
0.7848327493456929,-0.8322704468241091,0.28545215043035005,-0.35561251703843666,-0.7359068152762914,1.8159585055048582,-0.2122796021552885,-1.3612475930983625
0.7489291832566342,-0.7034562352089281,-0.8688906828587833,-0.08686337537843104,-0.45693338001691675,0.2547266714936723,-0.6406610486185572,-0.08836828845146431
-1.6492818860776155,-0.965522626542034,-0.8808611935926698,-1.5443583678459671,-1.1918403029493154,0.6885849213222167,-0.18350977787483888,-2.098182527811501
0.6364482504008996,-0.6538299626342554,-0.7666519138377453,2.2570095240935504,-0.4360763617637065,1.0151813830603231,0.009538144636940426,0.9331346424413165
0.28759538826917197,-0.7495425628705441,0.796541210784951,-0.7789048867034926,-0.3482701398889561,1.0142758667189116,0.5836653616149176,1.3253205256460294
0.25370021711973745,0.2126369237275006,0.5538983179607343,-0.45497085848385166,0.5644143052586879,0.5976742494413265,1.8287572437291701,0.26599472457578494
-0.4215986730509029,0.2850460382763249,0.45893434147760476,-0.2184658372935567,0.6257285464657573,-0.9942296919507502,-1.355751241172577,-0.7490254002231745
-0.7181452484737679,-1.8033964706568673,-1.563081494926679,0.26085915865231274,2.3566905640364997,-0.3038960085072043,-0.9544196782152721,-1.2922161431934267
-2.331149416692179,1.367587368624014,-0.15600763495420938,1.6363132641881686,-2.893923433666531,-0.3241645496661024,0.8933638583055971,-1.106970715274815
-0.5311458734279964,-0.2663205766849682,-1.1762242363234718,-0.02828375247050408,-0.12435803851280237,-0.11411804384554214,1.9666480390737702,1.6492933505787375
-0.6077316641708305,0.19644435529128934,1.262714983245781,0.5230532419462325,-0.12758753657508667,1.344837453023995,0.05816901291570733,0.5578206921844389
-0.8448850055584158,-1.8523369202248858,1.7338895844232523,0.34968436552155774,0.9038150690152121,-0.6435211713530296,-0.13261192313044592,-0.8029859455094729
0.2514337757103987,0.8084507674149188,0.06641207687307055,0.04494561431538392,0.2767679115992317,-0.3405872720271207,0.43564958520276026,-0.828573857509046
0.05285228965055468,-1.0255162150836257,0.5863798371218946,0.06374116262585525,-0.5993722083517463,0.06510582882224163,-0.1819306997880655,-2.0285693407970347
-0.7846968749900018,0.5603403038344095,0.42732802993342167,1.8167815087867016,2.4600003491148423,0.1549576318921883,1.0258569318493684,-0.33303075388659714
0.5623072344245068,-1.2815043225484224,0.11325026525613026,-0.8045431573985495,0.6034417483466761,2.555140442929444,0.010103887137958937,-0.07163300305676364
0.5538925729897687,-0.12985165047771782,0.26223935714979163,-0.765170018039487,0.3167161045594458,0.8144967130489781,-0.863132412929675,2.141793213842397
0.15051656059305774,0.39226159022549084,0.3127108635168284,-0.7986203369585907,-0.8286370884780633,0.9313925877733714,0.7116839632652964,0.17104054944992172
0.3143101403460931,-1.2105978644304565,-1.3772637765501523,0.2716268377558491,0.7009817213322207,0.796966490247867,0.22105222666165572,-0.796678503616034
-1.0652448985096359,-0.39096799594737,-0.3992797421460187,1.3013995240561924,0.6951094477684027,1.4512331767854694,-1.4329827040605232,0.013617765153770205
-1.190408130445329,-1.4150829315551874,-0.5535253181291474,-1.6722053760549007,2.9496650263651847,-0.635520770824795,3.022632210680937,1.5147533532708468
0.7525066766301682,-0.8697938057255971,0.2672633225603579,-0.4551958271325863,0.34594319932493844,0.05521453104498926,1.4474944974311554,-0.44368813506926197
0.6065322300543521,-0.009571604145189873,0.565451578391663,-0.21563105915670497,-0.514474260861822,0.22297142585114935,-1.4092958831585016,-1.6759771484724064
-0.434911837250004,-0.5974758807341864,-2.01857394256159,1.2889522688125712,-0.253869931282223,-1.212243725210647,0.3782784840846861,1.757605406986572
0.822268424523401,-0.37587091631009445,-1.1528489031353224,-2.0076816804077167,-0.27009391556231194,0.9399654856948868,0.8955736634341733,-0.14453441809438627
0.5415143686281976,-0.3622257671513904,-0.897851211744515,-0.3091388395201474,1.0095896493437757,-0.12676925378349185,-0.9198666635885129,-0.5935347951229331
-0.28359170867042116,-0.0065592982007840655,-0.6586664155047917,0.47926123573679497,-0.5432376283991808,1.1209389676307404,0.5687770320118398,-1.200650829102904
-1.005605819110704,-0.2417027496598341,-0.6915265011480164,0.4627092434622298,-0.19892618054964736,-2.3729743389202103,0.681761069439244,0.8677492013591404
-0.7682760518873891,0.9627791938072172,1.4751762775786668,0.38721146683748,-0.5119675462541616,-0.18499989619620927,-2.4860500948428124,0.6678249235702016
-0.7001343964781779,-0.5955056297512262,0.263392179533261,0.5321701746056191,-1.254331425809891,-1.4247966305954418,0.04376489820462402,-1.14571470403255
-0.6244831682380111,-0.3391297203894454,-0.030235253759159617,0.2503111118613917,2.3475518034166147,-0.06310449042368851,-0.5291052194117695,1.2211942943868226
1.143361638397547,0.9654458500548914,-0.8464000147149351,-0.08231004901582382,-0.11872989670755361,-1.70620598302734,-1.3959293155769006,-1.9682379188084562
-1.3733548353261416,-0.5311048069181917,-0.5404373981455958,-1.083388058167216,1.7290360710817427,0.6048860765288016,-1.7991098528102205,-0.5062841575176346
-0.48376499236591114,-0.23188128842544306,0.9094785777418097,0.17127410588497077,0.03492198517736147,-0.055069965414977516,1.538708955941596,-2.0816670811262252
-1.1823415742815864,0.6982662053649623,-0.8454027630264779,1.27612983424329,0.7584449397447073,-1.8034874546748543,0.12036367809848206,0.7965272791922751
-0.14845611005835607,-0.6581889074023352,-0.47337969337014835,-0.5032363512338716,-0.21018407950850232,1.6622921828250465,1.0937951951735803,-0.05984309671360813
-0.9560791330840295,1.6806856259763916,1.0884267595592316,-1.7831482564823689,-1.7762608964244628,0.19145130162919127,0.24040348384386004,-0.013992895069733906
0.044012262729381045,1.0611797442045963,0.3932572251998619,0.3022246330327581,-3.8192166020512053,0.20122807113488123,0.9383159899356893,-0.7583574169513783
0.802414714937213,-2.495232408793265,-0.06070551078129393,0.6813960528270518,0.02083544429353761,-0.3701253913838862,2.473557781178763,-1.8117544106643275
-1.5855204781902723,-1.320189170450209,0.4970694950122369,0.81999844185887,-1.4608530575486933,1.5343234795044085,1.4742031176897508,0.7873295883023077
-1.3593721611169858,-1.8042761442345456,0.022630804158633,-1.0699013989277517,0.1284794037018336,0.3977525511041357,-1.8164023207651794,0.5336601629033217
-1.388110995675918,-0.8401008896126224,0.3812820712570381,0.799640436128899,0.9446229200053996,-0.09927459766932982,-1.5867500027022199,-1.124162034240656
-0.1599489117279801,0.5602388311130552,-0.9639423191284685,0.15612769641269691,-0.7429155843798276,0.0018509484881368329,-0.025498696417208554,0.6903907047786878
-1.305479842847172,-0.5196427235119256,-1.166697384032373,0.398788348396808,0.07414412092401348,1.5244685890793301,0.715937310002293,-0.5648251833809037
-0.760903229968838,-0.5025713579251855,-0.2013238589336515,0.08245981596463105,-1.3620901523833773,-0.82300321911587,-0.1348011676959834,0.989180323175844
0.34977733508463915,-1.161253395003108,0.4598110073697854,0.6127675560533468,-0.025107547666044526,0.8480060536339608,0.11041475136595379,0.06742735712874062
1.081134878719454,0.83640290221357,0.24605121852303238,-0.6235413969519558,0.5516064071365733,0.4248743831616446,-0.63726726517911,-0.9707097803944634
-0.48306168187103826,0.002557614308010168,1.555840704005753,-1.1117016415766423,-0.5725815480527693,-0.7110239146253842,0.8026542095981262,-1.0974947265686685
0.16464812016450397,1.1555819992125238,-0.4437369532040172,-0.828373142331734,-0.1730700594857563,-0.271844812043192,-0.9529521828322671,0.5091484663595222
0.9749683727822964,-0.1134929568852856,-0.4675877606211545,-1.486393855617464,1.9974165728735178,0.06381872266449555,-0.6344649369835819,0.23622184184871256
0.6526032732419675,3.31107389694461,-1.1943855442937856,0.24110548134110732,0.8512695987676756,-1.100046568730833,-1.9983927324084512,0.5931113506746971
1.4838595302501238,0.4768469026558356,0.9268185469261965,-0.7842923047656265,0.7613072768841336,0.03210792183525301,-0.7753357014470383,0.2930831570514845
-0.14577129441898337,-0.36710827796867496,0.6482814675258783,-0.0641614322826352,-0.796638845758975,1.7818664820858687,0.2148923731522776,-0.4160530025139143
0.8607434559042967,-1.016962711376357,0.6937118833384621,-2.3896003739303118,-0.5971814254468699,-0.8343585136426382,0.8826352220616622,-0.5318807092992502
0.18010816524061687,0.7002849025430316,-0.9681031957688399,-0.8556606353648312,-0.9543235760995924,0.6519449161692975,-1.281034164383976,-0.14714512872617228
0.23964339445568922,1.253649896082089,0.8732323835586153,2.221265725674547,0.5608445499002118,0.1585340320356874,-0.09133713224545909,0.44059074131777093
-1.4007777369112326,0.8703611065443075,-0.4237096430130116,-0.9124085420365524,-0.0410964318693966,0.5091447529000981,-0.6832866795968374,-0.5266740498776993
-2.1841964694651033,-0.3734181802063248,-0.014911932788283,1.0737123120543828,0.18642885048739735,1.2004881835464931,-0.03771177190313372,1.0348573087656283
1.4062175075856114,0.38154202894945216,0.19833695487417086,-0.060131899718365245,1.5003383661230965,0.4568047264273003,0.1887322593239843,-0.6803273765006423
0.03586046387970438,-1.0095292539883023,-0.2993519755783737,-1.234785243831493,-1.260372709057353,0.5366979161098878,0.4288977833468609,0.3608455544189177
-0.5792674038068454,-0.5010990633035685,0.4781650575345092,-1.1209445984937638,0.6170105447090856,0.165430989764035,-0.29901063512449194,1.357464247962284
0.1671860157300887,0.10413957750864036,-1.467642364979963,-0.31623248469200166,-0.6489293819050618,-0.5058661514432743,0.446862906916242,1.0330085263042612
-1.322147495693863,-0.0957200569706222,-0.7886968736305089,0.5317666094404719,-0.8224831553043839,-0.8926461176312375,1.7942648860495605,-0.26226820931724254
1.3321140028734595,1.083301976477227,-0.14223379073280107,0.8930651934142573,0.28117699502072774,-0.199743859609393,1.7195892970919664,-1.0375223965600808
-0.6882929357047213,-1.3447260226754618,0.9679842385622309,2.0389868975722027,0.25430783370372456,-2.405157061680678,1.2872569667656253,-0.8646773410280699
-0.5795115181628918,-0.49776987759523095,-0.8206654495104171,-0.5561450390760659,0.9437086604144924,-0.4540587771186123,-0.9218667656707963,0.3387329974979081
-1.077331262168648,-1.0078981396416569,1.0822348593872635,-1.7390677551357685,-0.3447689517465068,-0.2566268971387746,0.7112150139769258,1.271794338253746
-1.7466131645824068,0.20596849559150782,1.8446002001709252,0.04960489931756467,-0.6398198416328207,0.0775449065533786,-0.5099331474443057,0.2854485076304921
-1.1905191701709443,1.7874916835493986,1.2430857352333275,0.5130666626045357,0.854083683957671,-0.5586861302061604,0.43034397339540853,-0.3507790790108959
0.5834965908377558,0.08089988295871114,-0.6635973828013239,0.24458552868817926,-0.3293550264561615,0.41353760093854136,-1.5083851111465958,1.2568222001631628
2.153435300392568,-0.2867561735599006,-0.7097200463106024,-0.8024544219942694,0.19590485026341628,-0.8943328608123047,-0.35628314983144427,-0.09227451858605784
0.30333141902307953,-1.2143146447347748,-0.010143488336124733,-0.6251333316396512,-0.6977347872863587,-0.6105589536318248,-0.34408168738279044,-0.594628916462691
-1.1438491344179775,0.17647515294778363,-0.20921630204798342,0.045628278753101124,-0.9371609426625634,0.3605471778475463,0.9580385427501847,-0.5969524796024674
0.5107071428842018,1.8614062186748814,0.47140466673506304,-0.9169251351642522,0.5755519651864967,2.432055748363261,0.9245782623216734,-0.5370302032511289
0.62352740685841,-0.46890496990618785,-1.2612310742936519,0.556523296860031,-1.593811756078218,0.01380815692778172,-0.09868568793554636,0.8171898228471073
-0.3725792642771793,-1.7469454644224924,1.3682180634283057,1.1284229876815504,-1.5895836321071495,-0.0072647072849002835,-0.6751455201580452,0.4791016877408674
1.1310644598374493,2.018653484312935,1.5514262164371087,-0.070525393172617,1.2816180934209827,0.3479249160461452,0.7035117015487942,-0.20785990043289906
-0.07415375098810892,0.15896585452135728,0.10790443775570019,0.5622145581980583,1.3203930721614616,0.897969634636252,-1.4063996485220935,0.13377597770708777
0.4522771366408895,0.6995660095842519,-0.6081534008094952,-0.04742426585453379,-0.5559347821288539,0.6469266474415097,0.32713140314930783,0.45620015247383533
0.06466339382526269,-0.7154550593627557,-0.7359283503617519,-0.12499905919862361,0.3088067863395584,0.5873202863139994,0.38474064422930243,-1.004131751839842
-0.2127107279691772,0.5476897905837131,-0.4296061876830936,0.5329874795351448,0.32093656904186124,0.6140852465413731,-1.1036006819591908,-1.7206044485606409
1.8937303726787844,0.9218842128703953,-0.5467220579356175,0.6936223134337101,-0.051203291916565585,1.4679665416625562,1.1643590297243875,-0.5377205015793429
0.2990958789856398,0.20485080890593446,-0.23077169862965485,0.9111757719427802,1.0030942936490868,-0.6296501030449803,0.5837774097963345,0.7299935328341965
-0.02769846756355231,-0.7037302799033087,0.310204610549623,-1.3486466493293163,0.8322921605575945,0.46405753886610795,-1.370844223040335,-1.208874148397372
-1.2002148586304056,-0.6629591650607405,-0.2729201973256419,0.7617575380014157,0.2966704872335679,0.9678713171912742,-0.03643405675509279,0.7587759925229905
-0.06995334403423896,-1.2580727045383604,-0.9309512420129823,0.45799667966641794,-1.1186693050494732,-0.28793266464546163,-0.2152783691957426,-0.7374939349149735
-0.9643398494297246,-0.6416166659791828,0.5373935702004444,-1.8048973359390077,-0.22260833416591688,-2.8408661214918087,0.5211936548447202,0.27032173930353515
-0.8025180046483709,0.38708917989690844,-0.9286489496710908,-0.03386510040076038,0.9349631400007927,-0.28004965226250633,-1.1306117789393824,0.5601294619572876
0.1153716744861713,0.8588762157033453,-1.8432456831896482,1.4054349701432354,0.024075030487373555,0.027833854662898363,-0.34342627627534167,-0.33261565728722037
-0.7515903724125461,-0.08631786226266762,-0.34875933106375573,-0.3608257558513387,1.594406048888219,-0.6777207550713911,1.5742691984040686,1.287840385772428
-1.1019959207865067,-0.8747439105831086,-0.41266677564451376,-0.9393910923979123,1.083809983293029,-0.590093423809523,0.5432176267652841,0.14589583752603486
0.6716964672173732,0.6370014680489093,2.101890896045004,0.05940112529013501,2.068432805941685,-0.7209310727411679,-0.20033479373917473,-2.32940954700536
1.3950089488650215,0.8935691676432064,-0.9735301481573347,-1.322441532069286,-0.2767334011984157,0.10943963545043077,0.3196543794202729,-1.7594709935759656
-0.3376174317670512,0.08110045904273534,0.6410127785775226,0.5581690785933424,1.1172344037265454,-0.24842560653073126,-0.8853369704476549,0.5938379761084072
1.6033905788402012,-0.5725963100434485,-0.0722326607886523,1.646986558425818,-1.0960051308812293,-0.2976197749756813,-0.6203207705257978,-0.5308487575663697
0.1627152500216971,-2.0703201702148277,-0.019572442997413474,1.3272723899426198,-0.9652566978263654,1.3679326759587997,0.7248962336491334,-1.0808098635702117
-0.9624824029928389,-1.2436066517473139,1.6755928895274177,0.5877944440357507,1.2264703643863148,-0.5592402519268614,-2.1580381157201227,0.0763641849017082
-0.8588488743550596,-0.5692858546608992,-2.3290104892654018,0.8845838972611385,0.12145116857216515,0.016065487777663635,-0.17319204352369302,-1.049234002573868
0.07045221282845082,-1.477664176461657,1.0016046222341874,0.7482903664250365,0.5376925222880998,-0.13122201175458623,-0.17721321579249527,0.6077904617438515
0.3556101455949631,0.7387599738611073,1.1469748910456123,-0.6530989416274174,-0.3011072998752573,-0.2592836027257053,-0.7016476858139837,0.03690774042193056
0.8866564083807681,-0.8316726590398129,-0.7353374188970281,-1.7914235062511925,0.2028757596646417,0.9348103811782107,-0.37318965518164254,2.3251835508204097
-0.44270857100333194,0.29278751024335925,-0.7815175670753587,-0.3717482469312198,1.1799514376650015,0.11289078964043653,-1.0148377126994226,0.10951569831639749
-0.9363052116556545,0.4963237653802632,0.9983738483414021,-0.5931829030368986,-1.2671218143417264,0.06416255507317001,1.5061331190004932,-2.0792717063380595
-0.1309490125981523,-0.49931534554527973,-0.502771937303679,0.921304116941775,-1.1234600020815138,0.5047612434067624,0.3325949506185859,0.5830770740958954
1.054935643707166,0.1453368084337744,0.03592079662431832,-1.3488622527646636,-1.7389170617778538,2.3751601731509417,-0.6899625871399784,-1.9956198788116855
0.7789358698573693,-1.4131216156846516,-0.798171662467116,0.2550569406757623,-0.5637675380666886,1.0887170292328545,-1.168298346415615,0.27993141095152063
1.2063450460658671,-0.30416702342846025,-0.2124737889338153,1.1572945819420204,3.216597144935706,0.2480497027081237,-0.5449170226813679,0.0631677840201167
1.1692202387090582,-0.3730221076112864,-1.2401130052775868,-0.3762789033118524,1.4493214240273602,-0.5013559256484394,0.5269830071496051,-0.6141607318052333
-1.3371551235785755,-0.7569932156028193,-0.28244771241856775,-0.38118816194861826,1.8594701274436165,-0.20483008823575252,-0.8559283101514026,-1.2298469224244895
-0.010288887152930734,0.6026480620061321,-1.098229715033537,-0.1741495237313489,0.5144565333247686,-1.1397669290361554,0.3921811727392704,-0.9793240675647823
-1.4491314158754474,-0.9285551389920751,-0.2936671584292712,1.9441394271915042,-1.4074792744403892,1.6471936277224588,0.196684696511062,0.25157897354559405
-0.267314964078678,-1.0980163779549554,1.566794482367007,0.33883232331209373,0.2206584018179676,-0.07132362135458448,0.5613172888216115,0.6513912549123111
0.5825489340878641,0.05158936862336469,-0.11195672738728997,0.2741499610086129,0.4509297762842727,1.162033018334672,-0.15686534184359915,-1.4829619473397246
-0.4762034273402143,0.5795301354519111,-0.7965133742665766,-1.0447183942168974,0.874452128387854,0.7275797493145977,0.9918774069074756,-0.907043758669751
-0.8508801720664756,-0.23101697908438548,-0.3501100314692432,0.22152686355327159,-0.4058870244140792,-0.5912426971616896,0.08507618180360726,2.700629176198927
-0.7650607517433733,0.4195392510697909,-0.977185189498707,0.47685244432383367,0.4507304410889058,0.06984939774800705,-0.2197852880428912,1.981655709065
1.0509550296745165,-0.677656221061622,0.4149251915945642,-0.7705245909065419,2.5581517929088733,-0.21980388993243344,-1.3016475819230957,-0.3761751077311828
-1.2440465143294437,-1.6348554933249566,-1.361505953990749,-0.6573859310728648,-0.10805381871849938,0.7723492127997333,-0.10402746778197279,-0.8194941684983008
-0.3376783146632161,1.6862528871363573,-0.7675312179869294,-1.4907182593279833,-0.541110656020589,1.19002264820302,-0.44357228674294435,0.10961009152211523
-1.4943430736966121,0.0050374676111769965,-1.7079794040858058,0.5312587774071938,-0.5236961906686689,0.017558071160847906,1.795752373870516,-1.8295733812784831
-0.5385234784978041,1.9538780056254443,0.45324231595221026,0.2614506074597926,0.3607347527896948,0.28003256104856616,-1.1392272351126942,1.367697026388319
0.05068864546492,0.339648539333068,-0.5799996884595944,0.10861472859626875,0.06550914307504392,-0.6558294177485392,1.3899441697114132,0.21325831401966774
0.2783942758443753,0.5784284275820984,1.645662981692029,1.6781239147759819,-1.1837191949966157,0.070558371572559,-0.35269561595596394,-1.244849978323843
0.577729060287893,1.3994045133163588,-1.3762155568082861,1.6996948499646554,0.2631531059605331,0.4710495533650767,0.5664079004511707,0.9158967518199174
-1.6740297500472412,0.4994251938094823,-0.9097897088894062,-1.9828829139113082,0.05614328299926466,0.2679752359655255,0.99389091782644,0.625485977176704
0.4831921359790687,1.0196128093040489,-0.16103760669078646,0.6622258150614664,1.2756249264495918,-0.690406608149735,0.09025133207189805,-0.32368235816123936
0.6482242982797053,-0.9811261387502868,-0.32987167257417493,-0.13446434713292518,0.06779876247944526,0.22334317707730403,0.9544640874913118,-0.3603461952560686
-1.0709098067753686,1.1295529250054295,-1.3450852271676126,-0.26613202533555796,-0.02130774361662331,-0.6772818817271843,0.8438691962886955,-1.3339569856363431
0.33969650714464633,0.8892307554413006,-2.238673205866982,1.4082580700201006,0.05425895197117225,-1.6173606284690651,-0.1739463426462434,-0.5577930729236139
-0.023197095432043454,0.03979050923930495,0.8052483643331093,0.7238658355046854,0.26219268096454573,-0.14216521626282536,-0.6538155086143533,-1.7466037315720062
0.8953696931058955,0.142723924684257,-1.0552143274514196,-1.5431437781397401,-0.0742841801053885,-0.607724541941287,-0.3006685760057228,-0.8195944726280842
0.9837577331448629,0.45930948318718323,1.8036156384722726,1.650196107184234,0.8486777787566433,1.022986565944107,1.0366070319478482,-0.2623978868297779
-1.5418627157172726,-0.4531939546628919,-0.7463568001859126,0.6869180205363256,0.31807299534692485,0.5196147934053029,0.09320225198046352,-0.32488065461580745
0.6676955246310654,0.9053505646201315,0.06580341579045489,-0.43724750902376425,-1.453772784738445,1.5557017807584737,-0.058064035276415335,1.0652802666563814
0.7089949312065192,-0.5751489804356298,-0.6153106522444451,0.7215634444789251,1.020572736624964,0.05349023708271822,0.33341236804051927,0.6798116545916492
0.3234489541734663,0.2715413205698993,-0.0873003770372462,0.5793636347249385,0.6140134446694571,-0.9654829123250507,0.1417709325434474,0.5595103592990275
0.8012087205009888,-1.1780037376961425,-1.1931066197712379,-0.03503287395862362,-1.3024125945484628,0.5550497823232746,-0.22517799646848474,-0.2588076979567961
1.9923451110595,0.41136108092352636,0.1110415216428021,-1.0690718815689968,-0.17045068795385646,1.4449501111091914,-1.4537927720153636,-0.2004702304800083
-1.4154561997351092,-0.06930708138142021,0.6664712661692187,0.6039446640264494,0.4758997393117248,0.26840135097940954,-0.5772204116948764,1.4782614357423338
-0.8304649078223569,-0.5036416452568228,-0.2863552007737245,0.6077167586807525,-0.8593773336072678,-0.4515069542637671,0.05791856612965514,-0.4981089544757659
-0.9718387050581716,-0.5694807350393387,-0.08932820226299533,0.5747880156044118,1.2499346425368703,-0.7104538853076233,-1.3924962312055467,0.9169696980566581
-1.5494105094136843,-0.33080686350684924,-1.5067963366567645,-0.009939254551462101,-0.8244976959770255,-0.9905330082009234,0.29943828212837126,-0.011756719811573158
0.6280547402135142,0.940595043863998,-0.03730972307971288,0.4327033840738704,0.5878352583074762,-0.7726786282326605,0.6038283575952927,0.4104913967147376
0.7742009130994026,-1.0570259255739791,1.9764948235090884,-2.1873296986178823,0.6504502194053724,-1.7681259895242507,0.6099988862569476,-0.8511078052628253
-0.576758720211153,0.11516767182576565,-0.9364595684251361,1.053996894005992,0.7791372776972315,-0.23968911271592247,0.46773899619240883,-0.7226752479206211
-0.5028066767025248,0.8401680765022144,0.10524176634135655,-0.11240663260231284,0.5417566034398231,1.5917737430499836,0.44546086363825355,-0.6737452643085534
-0.5373878451098753,0.2865813691602392,0.6261908576688487,-0.9081176549305471,-1.6329234383487066,-0.7083901205705934,-0.9668567906597276,0.1119441893795863
0.07661649030568461,-0.04722668913563993,-0.2345165031953669,-0.025225796250104238,-1.741768127205627,-0.0030126696101862084,-1.6312464545726417,-0.47930008493956433
0.9722189341255911,0.34366503653493236,1.160502457710318,0.11425688620876943,1.845130778043522,-0.795850922226658,0.2951797278517892,-1.761793699381397
-0.16961363322323872,0.6274878697732226,0.8333004898109991,-0.45247887198541903,0.03976029461543191,-0.40896500452774376,-1.085543090867812,0.5465242157794914
-1.040002328439609,0.6871944489874368,-0.3162660376868084,1.265750839349049,-1.143677707011259,0.9234465064523969,-0.2024969905574849,0.6451999376126472
0.20601166886748495,0.7219870113424783,-1.0068462617203615,-0.9103831766257126,-0.7443136142515511,-1.2458412343749037,1.0321337687110506,-1.593304124846068
-0.9058988268196092,0.3285247913054989,-0.4369159005805224,-1.0973918300908172,1.3909536972985181,0.6447938128733152,0.8457851349385754,-1.444413793621261
0.01049698611336663,-0.9127292358687898,0.07843861233389371,0.2586704137975467,-0.4676033319059645,1.0722169361382043,1.0361043673927723,0.02721059277746067
1.7926755154237553,-1.4014558997364297,0.689096082253658,-0.9843004830436023,-1.136289644745388,-0.6355951278433667,0.16286633949539878,-1.6067635759197865
0.5518551218064471,-1.9865776462814657,-0.23988967770415257,0.8884172464057191,-0.016361713750333087,1.0236871906411722,-0.5595371455781628,-0.26973622901818267
-0.2400019872756208,0.4511317764927374,1.4679529098378403,0.2902970977805575,-0.06782612159108951,0.5317086791807569,0.403062845137131,1.752708694901612
1.1415449994894942,-0.4070387320022809,-1.5190649024245386,-1.3020794052717903,-1.6804823510162814,1.9672731300451234,-0.06853718970600595,0.2289320600279774
-1.869228539317382,0.8424593443539318,-0.9057219704444727,1.9292230390128904,0.304197207531853,-0.04843026917295811,-0.5148227142523043,1.1515220060540852
-1.393587157199137,0.23915436757140213,-0.4776691292554862,0.584840888949418,0.6080085801843634,-1.2807717449248799,1.9327000066993856,-1.1148375839467168
-1.79450922605883,1.437177505952686,-0.6928497184208937,0.20009995650179124,-1.8287041077437711,2.0185367756904333,-1.1540016761969545,-0.9635510948334131
0.9724044296760718,-1.0274329801315616,0.8000792038901109,-1.0486135842692683,-0.6150320133073812,2.022775394800626,-0.17477087009873418,-2.1379438298678815
-0.974145616390237,0.6411464548065043,1.636974161669749,1.7729522600709433,1.0034415003932777,-0.14289855622104647,0.37373348679481705,0.43293681758728997
0.5736446149514748,-0.7639603088504706,-1.2749053796661307,-0.21275239121331535,0.46922278932388706,-0.36154268195053035,0.34795153791133643,0.8431361554562629
-0.2668078195781499,-2.1728690007249982,0.9316399436357885,-0.3030302980059501,0.8330098828794926,2.1781512646288164,-0.5670756279475268,-0.8641490096923803
0.6354767117146068,0.337561328577058,0.05581289753617487,-1.2345975427760871,-1.3335868655595786,-0.5112093336429451,1.1275469201620856,0.5802530647516275
0.18526516858303085,-0.01164176234684801,-1.88260828854314,-0.5797961526371201,-0.2507986330426977,0.5400113566155791,-0.8334943690645777,-0.8311276253017036
0.049673497872726076,-0.3608249679155959,-0.3642419125216527,0.06325502251051256,0.13386177278930858,0.8674934527549023,-0.42794302206267576,0.3970347535320577
1.7974096415611467,0.3979792866967413,0.2853875107497667,-3.1529171663947184,0.5343651484815449,0.8307738920203116,-0.8416594067703265,1.388188153351631
0.9622323840063859,-0.4505518947478879,0.8845618369120007,1.6984163304671236,0.7499415621377614,-1.128088158069875,0.06117918169132308,-1.833096514629959
-0.7940247577425558,0.968083870323693,1.2716180984349086,-1.3430162958256764,-0.08255892590821116,0.909289905650942,-0.7916021684383193,0.48750465968313106
-2.432231325873552,-0.37175543336547634,-1.3679820236150853,0.8065554614109625,-0.7406657773992456,1.3410397034408506,0.1510319131519305,0.20662713686947862
0.9999045485384295,-0.5478335864218249,0.7253515486166304,-0.4505333618786338,0.10160961300416445,-0.851830497481892,-0.32664727054359083,-0.3760850148467751
-1.8326308333130035,1.1538082358724215,-0.23872287350902643,-0.6443119703093851,-2.3412285969273956,0.9358448570735678,1.3099484657638116,0.7459310507644855
1.3288455738118132,-1.399353264433454,-1.5632083247818471,-0.16195606599601559,0.36975220414305693,-0.10910528194491424,-0.4152148699313084,-0.7897284929866722
0.17003056351532833,1.1196804064414003,0.20992222192453416,0.7898065024809232,0.15782180367229998,-1.7009400161865287,0.7801358681223814,0.8159146426240228
1.1200939063304596,0.621020356930231,1.5274891063853178,0.6735998809436033,0.010768098806445643,1.4702814691864508,-0.9138281154692076,-0.7027035113966903
0.608134630275667,0.5045599735777762,-1.3406336982811757,1.4704832350640782,-0.9213928102501946,2.2087320503168857,0.11566963046674726,1.1590571008723127
-0.006596931287462307,-0.5921009951186355,-0.725113401180583,0.08406492767690901,-0.37068678014073836,-0.7974864065447368,0.3370582016226154,-0.8364762592260564
0.5756928200786952,-0.3818748964738893,0.6277065658882345,-0.5767691431991411,0.06984110604680806,1.4447148286648142,1.6001362257208698,0.2613717603164604
-0.4559219759105802,-0.17786074402489507,-0.34445245780395195,-1.0088100136568852,-0.4698086662061679,1.2221446782147878,0.4472988529087511,0.7566340773102097
1.0682031843446111,0.9067632705209492,0.4578171984732386,0.904651196883761,-0.4101538350862638,-0.788046755543544,1.0161921916291623,-0.5817919882718666
2.304858326595992,-0.17518993807418853,0.010843033411013241,0.40066573618984447,-0.9214392479156994,0.20219757020760068,-0.40431908517296544,-1.4595777641342762
-1.240018492627005,-1.6056148600462155,-0.17426813770676522,0.9884847088666425,0.34406872281712286,0.408336469714587,1.0734150157255882,0.0701210130231202
-0.9178927470148934,1.2448750726402642,-0.9357698700223732,-0.753439607534586,-1.4231524338629435,0.42109022614425856,0.26048645181502356,0.36478609349645524
0.9903109497606292,-0.4918953676801305,0.2948246240940057,-0.5383178845969516,1.1697202973543057,-2.501984512306903,-1.7731787881907415,0.6424814931257785
-0.6510918796315485,-0.5383098201021986,-0.08958296979135708,-0.6744516749806932,-0.28427267398684475,-3.1962278885434308,0.14707286418152735,1.8806714285390065
-1.7740446969088088,2.0752630407392707,1.1374810020993935,-0.013716243541488881,-0.8994432701868202,-0.2964312083587941,-1.0142909562974898,0.999260279775416
0.12908632575548845,-0.5719794403361251,-2.5684241644012507,1.472062555776347,0.022084055438326037,-0.6323402405057605,-0.6781161808807129,-1.1654210247216195
0.3885505951106297,-0.47064025439495333,-0.6928521379542394,-0.10765220745046196,-0.00778629385684998,-0.6182624478571178,1.455055220443734,0.15742868964200762
-0.7651724806471081,0.34005845646830984,0.2015971217322476,0.8783761836520728,0.6290211197267834,-1.6533315798366255,-1.0459871066433817,-0.878408875340311
1.9660320122000678,-1.0911865462705255,1.150696037910802,-0.537900392960127,0.6351331969206118,-0.16186851477641434,0.06733947140785104,-0.3441473973050068
-1.0670814916168556,0.01935604747925589,-1.0715173481396043,0.12271864139392867,0.1288053053355676,-0.6861931775098914,-0.22801827146611622,2.005511328743114
-0.048241433902371414,-0.32615161119656705,-0.01524313577332756,0.8941606074160904,-0.2392767935126317,-1.9390700413430684,2.261082645369602,-1.5024195581630824
0.3649627924060797,-0.30878388851446514,-0.37623620016318193,-0.7594622817512203,-2.4525012069413736,1.2401546598252913,-0.23709696895054988,-0.9302121131244167
0.6915782018600111,0.36873811742111684,-1.1200700111342867,-0.9852874356444206,-0.9550854415647052,0.22170124079799047,0.35191516505997006,1.6905504607628539
-0.46725762165529283,-1.3158179332378124,1.123038450369581,1.4205908067141861,0.4631369023261193,-0.6778235030696874,0.15196885880726554,-1.6033296584851762
-0.004920482631321476,1.2303693479923545,-0.7688626410183048,-1.5036823943740047,-2.0174053237217118,-0.3445914245035096,-0.9981872731078444,0.6602922529479467
-0.6431136212195232,1.418381051634741,0.0010945288740867017,1.2896671329983576,1.3443432859687259,-0.13942788844872953,-0.15154905194961232,0.6494697568243099
-0.07272522542349498,1.702780623247634,-1.0304370917147692,-0.7706065854288214,0.4575519839359274,-0.44831548359593254,-0.9563137140388249,-2.3151816662906404
-1.0007407892060234,0.4726491508300221,-0.6642249989345977,-1.2953460746720888,-0.08678301505668498,1.2463817630626315,0.8448241489535059,0.23382137183688192
0.5097026710983228,-0.8829197652515287,0.5242117720312252,-1.203911076067759,-0.8982973213580752,0.018951775164865122,-0.3308270594419566,1.2234682963139385
1.4958057168120653,1.3602451831544609,-0.8212099659443923,0.08535871090942634,0.3926317270142673,-1.3501994495417362,-1.7390874871926927,0.4871378898026585
0.8087980235060632,-0.23690723000778377,0.26428742146468087,-0.4387637533331437,0.06899417742580631,0.9361997379211301,1.4285305096883758,-1.6690448349642244
2.2496335241478818,-0.016965581824460146,-1.0863334028663918,0.5609135328152369,-0.8323719008574254,-1.4180419760419467,-0.6469951008361934,0.6252651176889098
2.2755779567851566,-0.5047232500482657,0.43106411873586503,-0.635732394125478,-0.6873820015720417,-0.5768654572339302,0.5028043956387263,-0.6084688479391072
-1.4719293631867576,-1.96246692107118,-0.006192803822496654,-0.3353989357253976,0.6288583148382704,0.2513678151271924,1.9508395598577895,0.12414765194492043
0.8932340354178706,-0.7956542883185955,-0.26305388644898725,1.887494418300235,-2.2333301896503204,-0.40622843490388955,1.276901686682999,-0.44144743524723273
-0.5448860312391645,-1.1865114269253865,0.9303338549195893,-0.590954512626148,1.2877985704079558,-0.4191956307260119,-0.8343150065693248,-1.8536618502238549
-0.26429626745962703,-0.453050730812578,-1.6430674915072863,1.19286366794162,0.7108958419341604,-1.701213788693874,1.88728544446073,0.07937323144368576
0.26041800032414897,0.4159217994929937,-1.4046287972987326,1.6729472640423757,0.7398595762544564,1.1371549287012703,-0.5848046097223517,-0.7417577720158078
0.5340076608174916,-0.343770719109757,-0.9269434938606613,0.0793318582614503,1.937795803958128,-0.879515414666746,-0.25781317950017774,0.13615755376024957
-0.5931270568927955,0.0360600171359196,0.32070075181794966,0.6105727375008992,-0.06564587356727174,0.23849170103412431,0.07483146752607449,-0.7464059010963114
-0.21754326887851427,0.5156952485398231,0.9863777287281416,0.6140446980280301,0.787083724368382,1.685132345670276,2.5523288829175073,-0.30369721784446546
-0.8500741460612801,-0.37324510137342726,0.4545315000851476,0.8043580268427767,-2.1554110577423367,-0.0023632675329193515,-0.15960707439721128,-0.4308333807608191
-0.5350116513370236,-1.32031074029026,-1.3545713674224538,-1.8456414273610093,1.5549741457501722,-1.226356539596292,-1.6089697050454772,1.3921847102392757
0.7857460784222617,-0.5132935002109877,1.0845664754452282,0.052286000439172683,-0.2046075994807267,-0.6651390415500549,-0.5547127559370172,-0.5781322913271617
1.0724603601963385,0.6258530306703548,1.642777923086411,1.4633595966580981,-0.13389587870538472,-0.7362564853756818,-0.8785713118704745,1.2886636875504371
0.43841878789174704,0.7977799875971956,-0.8511020734152425,-0.8831405923980249,0.6140107155112238,2.1389162103766144,-0.09393864788089838,-2.080626543831994
0.24258382032913187,0.8427903287818845,0.965479293159861,-0.36529369383103893,0.044400123631760505,-0.11647260987267656,0.8743696322418674,-0.7759199566035294
1.1724980832148597,0.6637909350782691,1.0444045884560846,-1.5757617941774962,0.26389774692629836,-1.3584954709224586,-0.06004750215987813,0.44447858249737415
0.8990099138703387,0.3679453257635951,-0.1546286856240766,0.24282456186585435,0.11642455546657404,-2.676906583018579,-0.03674111321593946,0.6172065564890322
0.4016917029761626,-0.16507950374926886,2.072478251510229,-0.2605944203808366,-0.7688508577420868,0.03740564821323363,-0.1056988794198058,0.11289790024633498
-1.1897648811051857,-0.6672221315521039,-0.1494200914633142,-1.8273704541455786,-1.8202899163754163,0.5924630681606629,0.819047977965488,-0.7484583608085835
-1.0108393936844324,-0.30743749678294346,0.12464341609373007,0.008162097993637223,-0.0775351326114114,-1.2548132872278712,0.26762814220251835,0.39208971825805733
-1.411687943884901,1.1069469980279385,-1.1825705588716522,-0.06273036784890262,1.1152969430311257,-2.222930547038649,-0.1181764161777742,-0.006489642262749946
0.1934101874446931,1.0147939260215983,0.052196787894995045,-1.8550013139007953,2.24325142359779,0.8207683050331764,-0.3496920955637085,-0.6017612109684792
-0.21900239865022345,-0.09524846954233616,0.28841570883956524,-0.5357861521825602,0.8233850907054775,0.6952878046126653,0.5080357306650182,0.16024354406821253
-0.27869279535303754,-0.9914292647786864,-1.1944676348902319,0.29605765464931727,0.18172565849321073,0.4149418623385689,-0.44283584914648827,1.9435125742079256
-0.4878440492813688,0.9131793983831071,0.11556226953099903,0.5866066273982883,-0.24814275956451437,-0.26778093015289034,0.13909542532239538,-0.035728502906648855
1.50278852046689,-0.93277655118302,0.6013603295975596,-0.8631989528427448,-1.9331052798878299,-0.6654971609897755,0.702621637814997,-2.119502318739466
-1.0983656096761525,-0.06500202640719144,-0.14004638092274754,1.0959417323954306,0.9482572003896331,-0.9595588683743477,-1.287229367665519,3.4240320885102435
0.4452075685857395,0.7126732221337803,-0.5923812730934782,0.40267629961771445,-0.5513649303227166,-0.24209717063925443,-0.7033152230680236,1.4252236024815061
-0.24333193684804796,0.6732018411214744,-0.6048566034361652,1.7304383698580064,-1.681982751193407,1.2189213700517205,0.7118365820553376,-1.1312032892570885
-0.9271474857835414,-0.016029862210494683,0.38325007052335913,0.21397828466331645,1.7083367599752795,-1.8330542357805522,0.020294538444603473,1.5000639927730086
0.11786857203065873,0.1007311792696838,-0.46031245687050726,0.1515254391314267,-0.19239047425013484,-0.08594370689363151,-0.07699242968613072,-0.018518158087823658
-1.9565781740255441,0.22032457916170353,-0.9971468204974447,0.27454525054955153,0.7694758085668714,1.3692968376880115,0.790480187110981,0.40670513732990804
-1.549929970824081,-0.9938668611011738,0.5440948704661064,-1.1247049275874377,0.6876463523582202,-0.14196805701061316,1.2059245391870574,-1.2534404368092298
0.4324179196745364,1.917711005017812,1.230016170266481,1.0479156202182096,-0.16778105473963809,-1.3377154083488867,1.2815102503411278,0.7568474096032687
0.5356162615671095,-0.5347724365889643,-0.663708664469535,-0.6272548194332503,0.4873108180136671,1.6649018224064185,-1.5598015572187443,-0.3744976487439383
2.0753078570199284,-1.2800262195245093,1.3895396634763826,0.1220210488056541,1.8339446133416435,0.7448955667378327,-1.5888001525010256,-0.06416120433758393
0.9629843334678165,-0.7747789560252657,-1.097628861078256,-1.2974257936915967,0.7199248778519043,-0.6810595599041647,-0.6670596192648505,0.2763187244495419
0.8100500172298442,1.5018889536741848,-1.690016952497681,-0.6998303888734351,-0.3307559064828844,-0.8004637218609655,0.7047085622597905,1.1323413249137066
0.8322593730509753,-2.0308831407638817,-2.043376844099747,-0.42607543902424605,-0.31214945304073427,0.19389102431142338,-1.1027553591224168,-0.1453810914819568
-0.3437785019605985,-0.76167088122667,1.98772675362467,0.08386468191532889,-0.625075527368741,-0.24640586201128148,-1.470288376522758,0.09030935860138982
-1.2120965060522353,0.6755110274287164,-0.6344142092663696,-0.6649989097109559,2.1986120483549216,-2.1668516207799597,1.4500837385408258,0.8450475813873528
-0.21619226289017532,-1.2729881456988796,1.0541794053139346,-0.5656181237305391,0.4830233788285954,-0.07605329961948812,0.908567201722644,0.07450489290470423
1.308762245340892,-0.10054488149759802,0.05227921518281248,-1.0992697944216603,-0.2751183367501841,-2.127766747693784,0.24561731133076523,-0.7330942799482517
-0.11406824886969248,0.2678454541890462,1.555500719175956,-2.798030486297149,-0.5338969709820279,-1.6421930418054,1.273358271318921,1.5950305293526366
-0.685023372361247,0.6162065046028731,-1.3007137302166025,-1.9218981033806992,1.2677477815923976,0.6224286315741036,0.027330326610544138,0.6403654044570832
-0.23859862495461265,0.4149453089014632,1.299221510491226,-0.7072273899652451,-0.6430945109770777,-0.9258561076643443,-0.11755389880191162,-0.08237424502854401
-0.28690970554970135,0.1803622913862519,-0.4084824659142897,-1.6534259533806441,-1.4396806156190676,-1.4790898578386207,-1.2184275614838291,0.5325882068765309
-0.7614204769346599,1.0357875047480445,-0.07989216795259016,0.16812100915073774,-0.14876982468389213,0.0032491850185156555,0.4560533374185135,-1.1359652692102227
1.880372909919641,-1.3513829902297865,0.10924244045326481,0.3509523624717745,-0.26199972117451686,0.8205043612890839,1.059666316994874,-0.5888700097678032
0.7775719686930387,-1.001010828985388,-0.5770847226024665,0.9042989397266383,0.709249977011738,-0.6683963406241611,-0.6840360161956878,-1.2978069475460192
-0.6457198197214985,0.14219293521036294,1.4841047987916451,1.789883471763786,-1.1377668162320913,-0.002214939894950942,-0.7182014786378076,-0.9015092904209524
-0.9400216531293869,1.3234087490770692,1.412938750048585,-1.0899178776924803,-0.16860758727802752,-1.8010333832907233,-1.459772821321162,-0.24464223670335294
-0.22469823038930115,0.6165227393198714,0.7505800683597702,0.3475721557066986,1.5720859181228475,1.143859006467691,-1.765707918567151,0.8477864500180788
0.6700369389783933,2.014958512639371,0.16230795919925892,-0.8674380024133798,0.31165086749119114,1.124183951608411,1.3838403849537082,-1.2508928862512936
0.527074664387979,-0.7614984677118561,-0.7920693660630826,1.044009988312586,-1.1095478255016797,-0.1888781020013575,-0.25450171182163933,0.1134362307835486
-0.5837563896177186,0.13076255440811574,0.6252757911376398,-0.7415120338865516,-0.920737627545731,0.01029290947775922,-0.04219492091336566,-0.28524700528134234
-0.4064194661287742,-0.477960918649748,0.49286858386002974,1.0832899978328379,0.5327619694182499,-2.1004463226813734,-0.24248954265500736,0.2996266158883278
-0.9365380000918645,0.37348250575371095,-0.3888661646219854,-0.5161897546218525,-0.5539857360128954,0.16018242494558058,-0.6667819730389187,0.3126986695116446
0.5106346280063937,0.9522050791815184,-1.39332743543796,1.337129222968065,0.7854883116916129,-1.1516599627773711,1.4090445492036583,-0.07853364465476159
-0.5055915084430145,-0.4977576712937626,0.6796580435514075,-0.7303902468306457,1.286062942791176,-0.34669434361646984,-1.5735062809537335,1.1760203145963444
0.617250708677763,1.204912206727159,0.19391368449981244,0.517487211947984,-0.44692083076195166,0.4834694739417233,0.15878156347936018,0.579253164583432
-1.1287583566557418,1.326516509516421,-1.32863137759087,0.6979590574698692,0.6851378946517694,-0.7669364683785688,-0.6197878077787211,-1.5728920639232962
1.8898366933012511,0.42767675827239343,-0.7293928810827938,0.01721758303859836,0.24107642906936697,1.2677787698270455,0.1906228625911947,-0.4195469411949638
0.2685956772029742,0.5017165612761022,-0.005525046780739843,-0.15998098895422871,0.4377485691884844,1.5563321597903939,0.33730686857478687,-0.9288271323225148
-1.2880935139612892,0.34538258078688966,0.022205209095254648,-0.6499031915513634,-0.9837937956990815,-0.7360928893910895,-0.6118124110180395,-0.2064444628633592
0.07264290330963204,-0.5867523808768882,0.5198277090268818,-0.6141506439463427,-0.41106470073084234,1.1205167916921468,-0.32653593493421007,0.4902723903176037
-0.7241084932140277,-1.0391987350379268,0.10289367622949515,-0.25678143480813714,1.0829562257455172,-0.8076382434511065,1.4109134322895494,-1.2993291014121706
-0.25666840317422784,-1.4409027197695399,-0.4310975662358449,0.5236751222069994,0.005732514321684132,-0.6673321283866079,-1.60179775377014,0.31001535276394176
0.8511394100667546,-0.6207856913403188,0.9356181881445212,0.13578831075557493,-1.3263458707385662,-1.8364164823732039,-0.30461093182426163,-0.18043967678189277
-0.7145135117229132,0.053176645090326116,0.44871513144616154,-0.5284131545743157,0.8918391357561638,-0.7792118735137412,-1.4494085890529904,-1.5992892267859666
-0.17102650437495495,1.2443542839013269,0.2055588895492311,-0.8620177091896097,1.5236247250177928,0.349379325184181,1.1096473353165897,-0.5675137685035994
0.004232254087419757,-0.2721611775959363,0.8414505978408172,1.1373741644491866,1.5445254477002177,0.7578460531599908,1.553375120783033,0.5735259442404045
-0.4417265590915375,0.803930335687833,1.0714372278093944,-0.6861230503297786,1.1508470987061905,-0.40278403925500866,-2.075201661641855,0.40603972660193016
1.3311701484335297,1.2517125955038224,0.1275931859540642,-2.0513778892473455,-1.4728312057344437,-0.05838793737959891,-2.00794124402562,-0.25552905366760337
2.115384169748643,1.6275576676857477,2.1157419601565994,-0.9427221821045012,0.6835929229257305,0.04529630655228156,1.969450542832641,-0.45741702362350123
1.6441510795806862,-0.34841434944829813,-0.4871501257370635,2.1941102749419605,-0.41532469183402354,1.2266825118335685,1.5216875286081155,1.1941674902005273
-0.6174688238303244,-1.0584305384396704,1.5650016210709066,-2.3045138758153705,0.6386239785079216,0.23662294286583338,0.22086251970111143,-0.6985523834748372
0.6057768449628461,-0.6535893942638674,2.518375268633098,1.513511642658518,-0.24104417905361408,-1.1052241166631058,-0.8126112445266677,-0.27680560368723156
0.34393658569506325,1.9470798588064109,1.3318487877523533,-0.001991963412762604,0.9492851601145582,0.23135564365438424,1.9280079655761269,0.339044449967506
0.6125645904612035,1.6252138585597493,-1.1724238565359626,-0.22845019020894033,0.3972437294019405,-0.2850331501495212,0.27117064517292316,0.6156616623344371
0.8776966328271569,-0.10961647031791986,-0.9479563782814207,-0.5325008447645989,0.7325019942231912,0.6297142495890535,0.04326836085349907,1.3581221410435318
-2.5757018885947423,0.9033691009722445,-0.8773825750848693,0.878756987745702,-0.8010764226103205,0.5410777042381355,-0.14164291752811575,-0.6518165046479304
0.964737841692359,-0.21603523991128584,1.8333891351983225,-0.410549718002,0.9280170170849568,-1.0499984222129868,0.3829750738237822,0.49214298686606833
0.9017684442073537,-0.028206451126720867,0.8379145154794034,0.987038354484421,-0.31455503370428334,-0.4607731772743293,0.7277033698023261,0.3379190305830982
2.4278245447964273,1.960423589272769,1.7387601479064985,-2.2054833631533812,-0.6628818004282965,0.3200013074844691,-0.2281357044556493,1.5753445712500145
0.4534348646578021,-3.3110522617447207,0.598564766322616,0.5686180509857536,-1.5595919950920767,1.0633667243351939,-0.3067112552822559,0.10077749536238828
1.4566574944041304,0.7366865605879743,-0.8208003205811204,-0.09070568023767119,0.37059058000273776,-0.23720109846323573,1.0890018437705464,0.4383297136658658
-1.1392795866781134,-0.43632976670460094,-1.229396104476184,-0.9468943248914066,0.07389321423709755,-0.23754671805437644,1.644847627231113,-0.11197692742091761
-0.2530068642135935,0.6512372394626538,-0.06543691290285926,0.3524069273678631,-0.14209672185754432,0.9524188155921101,0.13867769625195805,-0.9480921472428633
1.8616145237289572,-0.997334924021186,0.811163391207679,-0.6760082828736712,2.10536999062267,0.7349346388372243,0.26258869962955994,0.6722172135509868
-0.12737479394706577,1.096852674538738,-0.008105409712418302,-0.4265377149396592,-0.9684328522057819,0.5728576331967531,0.6566061767851356,2.0050600930325584
-0.20567959484753937,0.44741461592533815,-0.1233889173229893,-0.4010806214491415,-0.27953236326301845,-1.5567383206429801,0.30133578940331396,-0.14175701477869157
-1.3830279125185272,0.9365720009729926,2.155729385044743,-0.12144876021857297,0.4517983271208526,-0.5213481388621152,-0.309115829893352,1.0262664096457312
-1.1805773056446167,0.3233008633424219,-0.3420535031882338,-1.4590746309656362,-0.5816637801997474,0.0022951826359433676,1.6588286382947668,2.5021272535285277
-0.2548309207084218,0.7033089776386581,-1.1973493033427698,0.9384324766727038,-1.635333707406257,0.34876890872781807,0.08736405501508301,-0.38518476635835247
-0.39637524524023154,-1.2167927733512334,0.28779402571499874,0.402419760171909,-0.27324088197877244,1.3486521706858021,-0.9035308282264569,1.212595772403715
-0.8320970561268044,-1.0206975113701338,-0.0406008290769426,1.2428033111300354,-2.1396359527737863,0.978124373257036,-0.05151582600647118,1.9147691708052301
0.1210373773726936,0.9989822677201242,0.30264780125171675,0.8848432161482992,-0.26504193589789016,0.5476446384895908,1.2231352871085726,-0.9428066740960913
-1.2671251442545937,1.1768135388333154,-0.5691112245100667,0.7994745506056768,0.345355303620105,0.26926802530763416,0.4402950633424155,0.9350223571985568
-1.3689588380234758,-1.1162218533322354,-1.0080264745360046,-0.8820170849378383,0.22031222228751457,1.1294065981567645,0.3217767793032362,-1.1713772306478822
-0.2814094369264467,-0.8885938340419687,0.5301305845869166,-1.298319916111807,-0.5690361729370815,1.2831330338719957,-0.6858712332227727,0.3920622686198936
-2.408748502344794,1.050612869288615,1.6841154390387896,0.09632707996271679,-0.6507784228672144,-0.7749527619421743,0.35187109444076736,1.4579936665722442
0.6325141866297388,-0.5778566506549982,-1.0846152372037419,-0.45035693463949955,-0.5538468266835341,0.5930453756539172,1.0372345011428714,-3.063467733098902
-0.6475226461287416,-1.0021059550153042,-0.613402071980266,2.360703917292776,1.0437620565503583,1.5572373495019547,0.7542668078120196,-0.6783864363393949
-0.2582524527364886,-0.3065962921761307,-0.22214719987029444,-0.8938005621889186,-1.989444706774739,-2.3714159509291584,-0.9981638538408718,0.2348690489307944
-0.9659675197669089,-0.009796243944592095,-0.9620742194072861,-0.9795257932138915,-0.809233624694363,-1.243880398762398,0.574996756817344,0.664095179571566
0.802547176282367,-0.6392153740524643,-2.163301622642366,1.5346903646631627,1.2719038930157065,0.46468113270386807,0.19793043625825174,0.4968515638348199
-0.8628802551673633,1.4809085889491573,1.780537591788999,0.6495667815964845,0.4205693326377147,0.49909653438644186,1.9841150277913324,-0.2917622087921386
1.1871180639537642,-0.2216546088517151,-1.0426012123772754,0.608078914261909,-0.10819477820356381,0.4528751833787775,-0.8853881415111292,1.4446609362905842
-2.339069204954764,-0.4949371014839895,-0.3528155972868417,1.324008838524341,0.011380269691906787,-0.5000288055186107,2.1636557774019303,-0.1086167511472755
-0.8054532312527839,-0.8435001283098638,-0.5083401316697735,0.7119624998822708,1.4301990310988268,-0.49686882684305067,-1.4189371349299544,0.9567624053323948
-1.4386359034953606,-0.984767901311098,0.586970948305783,0.9532394035409825,0.14552029122892168,-0.41594112684878504,1.3359203703239684,0.7113143101065051
-1.2919881828962247,1.7804900272198387,-0.008143293402070949,-0.18282739584849175,1.7349824958453777,1.858743867314065,-0.49208450677355364,0.14603604685327662
-2.103596165879912,0.49895356010749237,0.04997921564924808,1.1286615418073038,1.813429198194678,0.8349723349369081,0.023825755801593212,0.10197175530793996
0.2848433017064974,0.00833928905996918,1.6165452473576294,1.2481328954524573,1.7141905648633453,2.1634691078118498,-0.22475510393693232,-0.2546388411628811
-0.10719706160418473,-2.006570475976265,-0.2768779213361584,1.025127404921205,-0.7129112664186932,-1.2407274650213107,0.2611962973196836,0.24347035638089154
-2.040242707497299,0.3990598300317199,-0.22859707923780045,0.40253873950857755,-1.600654735837233,1.0537901952189515,1.554115228142042,0.5256135137422052
-1.3456203359620211,0.17043257363941058,-0.3154977924388815,1.2502624433362235,0.8996006520492252,0.91303369044088,0.7715228085538208,0.2744838576081356
0.8939217172321723,1.4907890394485641,0.006694393974292858,1.8403236176065125,0.6378856656222932,0.9833228473662851,1.220463191652064,-0.4052432808161831
1.142772872878406,-0.2510801936248481,-3.5490428059262538,-1.7062871973444094,0.9079677298541363,0.5696407530181626,-0.23166113179313919,-0.6784988996110833
-2.5555184666578374,1.222612624319455,1.0255074708905185,1.5792443457878527,0.03590179467827633,-0.6116321047854895,1.2669617546782845,-0.0268156105850258
-0.7001551267693636,0.5005057431267924,1.696988312480105,0.5881673346680878,1.3482842036654983,-0.005478210632761337,-0.03133666864281611,-0.5348331292783571
0.33773845019020565,0.5349373413701033,-0.4928195425535433,-0.7144123393007584,0.6695893879770264,0.0496218302536587,-0.9656476395195545,0.7692573887131954
0.27715926578981814,1.3066918044407625,0.11761619069915638,0.7972810177529297,-1.026485451653009,-1.4183467543393327,1.1714772421252384,-1.2158106233741508
-1.1570882015643724,-0.9234349386048119,-1.9592917795907394,-0.018383304133606317,1.1434784175427588,-0.7082888427657278,0.29654366732590953,0.5402748966297517
1.0334600226402164,-0.5491673010432011,-0.000758999221650497,-2.057790410336346,1.5881808874809655,0.11645960829349686,0.8436041385824332,-0.17606766798372223
1.9290787953901025,-0.4661678032128967,-0.8803936433602075,-0.9412878121513175,0.25622655499039976,0.9642463943944717,1.1234241518693104,-1.911265704287615
0.512439876061935,-0.050688919038194745,-0.018505916711293667,0.5449096529615363,-1.0936667574742287,-0.10310266322993807,1.1809395221080348,-3.1231051485351484
-2.089567411141427,0.9081938386692945,-0.29536446132920463,-0.28557578173819465,-0.4800770847619075,-0.12413584938871564,0.12162080198018317,0.5482076126488051
1.386021666086151,0.8793944156497123,0.4467171756792048,0.6713299002694311,1.0147230659405546,0.6131987225026316,-0.43777822485414086,-0.6989471910045234
1.8551710479386003,-0.1532671335466423,-0.27662962363113214,-0.4556823791576088,0.8641555456992612,-0.6219314145823235,-1.2269238679012913,0.21004865776203366
-0.8809505735948635,0.7021673373592957,-0.01461018280340177,-0.9890696009016665,2.071920167740924,-0.5020497463707305,-0.17509325472358117,1.77263413266516
1.1248826948199848,0.7822521626362836,0.8040915735512725,-0.691227093496416,-1.205669898610417,-0.46866840151619515,-0.5105459761805827,-0.43993446345850834
-0.49093749612047505,2.440625422133663,0.5462306041261893,-3.0197854382841713,-0.7538280417987459,1.3381180263898937,0.6684461866647324,0.15934927682780345
1.4426839731346446,-0.9923664113240903,0.7966370795859475,2.163910960813618,1.324571954226132,0.7285310258314355,0.4078690516617927,-0.0720528792235122
0.5432520172974534,0.24493146343587452,-0.6307630469044738,0.27366599772109246,-0.4533827907773593,1.0506461635747224,0.8133280620496215,1.4868949970127838
0.7208118455494721,0.16185402864935225,-0.9955356629508144,0.8477821814087563,-1.6154305820431145,-0.481139237150651,-2.612258598543146,0.09559985226615968
-0.7066624129075874,1.6139411201110498,1.8894081901117104,0.4430835640683222,-2.0697237066457936,1.9983920183259294,2.4489863019600406,-0.5521981844061175
-0.8027385327789052,0.5067927216069239,2.9609404369131105,0.27604987414410304,2.2023247198200004,-0.152529008345754,0.46091649321112005,1.9574738168093355
0.2179672050310442,-1.5046093781568306,1.4333118101224644,-0.8211060521021677,0.904477727440893,0.062083793582110504,2.1189255598395413,-0.8069225981160487
-0.8345205466850842,-0.5833701563232123,0.6601943773403691,-0.6297082752111848,0.782138994392764,-1.354526404487489,-0.5005417267796332,-1.0033514538085544
-1.2007783059440034,-1.3022492588049566,0.2656851454150071,-0.3018537877680067,-0.29188610356530026,0.33605586694662876,-0.019220065608135932,-0.7896922746522353
0.11088053747279872,-0.4878516648970528,0.9431185618225908,0.6651559626575059,-0.810097106467348,0.8100490701891091,-0.831520899794134,0.9504119493640992
-0.13090953881800726,0.7894661974884087,2.126656507499098,-0.6623235040830774,0.48068136808312106,-0.5647200094245665,1.0188837302563263,0.9236550490892799
-0.3476379598974074,-1.1798952234389017,0.29389260093693786,0.22474228232033946,0.04608272512065538,-2.381623826613723,0.25271399119127536,-0.6271058371812493
0.24040776873929584,-0.496293832426937,1.6586680564652074,-1.4410951754063435,-0.8294014466384488,-0.2526294421321379,1.0436064020786049,0.029859152459003835
0.2366677343752137,-0.6164103846012413,0.6578904265194692,-0.5463200737694378,-0.7035815372500138,0.35375497256984684,1.375742628279431,1.2784396674600649
-1.3756044327093349,-0.6099223706414588,-0.5610593176451459,-0.5949069479209188,0.3421437297404294,-0.8145659446381962,1.4031658383329797,0.5972387931734869
0.6258864301552768,0.492869745446776,-0.19661448358967074,-1.5243831173349933,-0.03504151333451727,0.0129175876063378,-2.0535060317649427,-1.4223339560516504
0.6099701185668462,-0.12519332822407872,-0.5606678053447055,1.552898898585669,-0.9688637505258751,0.44365739016276334,1.5939028405741968,-0.834443016104231
-1.0651981453281127,1.6894610644558814,-1.5163806856676398,0.6895634034301306,-0.17423116000818714,-1.620141352082243,-0.2001192705480805,-0.8467249651081212
1.1033746862154845,0.4457614392024161,0.8348661855024678,1.1302345209370086,1.6928682228837604,0.7028356433149087,-1.4276265336051794,0.5163205183420176
0.3856109263081094,-1.8040027969664671,-0.4640632071026657,-1.4338618015096511,-0.4003649348967849,-2.388965364865092,-1.1433924585181456,-0.10615381422955777
-0.14584851624888154,-0.06451233225021841,0.42686245920019217,-1.0068414188979011,0.641006016089992,0.07285979849667261,0.10066380823745412,0.12284544910764447
-0.2988834984062651,-0.4693476647568668,0.673826655162237,0.5607707066736205,0.20046906767736808,-0.30996479073123284,0.3250166219439784,-0.8757118991319305
-1.5545108192221866,0.31793335550977037,-0.9516420186353598,-0.2800271518745518,0.37082864546673405,0.03960268988155416,1.3902918709881738,1.9931125803807765
-1.0726807564383485,-1.588459114912185,-1.2404006098624136,0.010062906222327011,-1.859302726651355,-1.1252960631843367,0.8929733177773836,1.7727173467356752
0.5214132172972514,0.8381642850576051,0.11270856318880437,-0.31424513612661686,-0.33397578949341694,0.4384532961013702,1.5155166394777817,-0.7052615963982242
0.11787478047223644,-0.7218910650483141,1.5015208545181489,-0.12232902489554438,0.4109755244031376,0.43632047214200476,-0.40618822313262287,1.0661155006000633
1.0793576461444678,-0.49878378109012284,-0.3065235811487762,-0.9823990285001772,0.48769119835609376,0.8695343208047601,0.8191065158178115,-0.1897384285811258
-0.8836313503356854,1.522050873985397,0.49169412388718814,-0.3279970772437158,-0.18401643167062184,-0.7655635998219618,0.0398811308290246,-1.4290195925298865
-1.3044049683744028,-0.8284069962859061,0.16103896828199818,-1.0208193224919555,0.3463699748064027,-0.610170704952568,0.7402497682564254,0.004517028631724728
-0.42790965296130695,-0.0026646549894544635,0.15006159741251618,0.9042237171758895,-1.4844480492833183,0.8670766446444006,0.22067885781791124,-0.29264958762278104
0.6184535361531047,0.5125418828762954,0.964162141610085,0.9385632912042584,-0.187394885712508,0.45091546831350937,1.0779131310021772,1.4805520419801135
0.7938056016658444,0.35620386471949983,-0.6821220359588228,1.087492341596171,0.4176858117133956,-1.562626192120519,0.06304247564910427,-0.8341688921359067
-0.9944982202577826,-0.29292601619850805,-0.9334425548841995,-1.4590038941972117,-0.8131965758559262,0.6754960866225358,1.1114968168773025,0.4726779320649012
0.2230371096169203,0.32370440660958877,0.8817713277267532,1.1155323720480126,0.5624780784946415,-0.07680358559254921,0.08723355078831445,0.3373709788345642
0.28796350839327517,1.6868147502657898,0.6943056588402806,-1.262111394016699,-0.12425884782539592,-0.1238795847559432,-0.17824468005935912,0.41419387632503957
1.2232503057123674,-0.5563026856453751,-1.0790742587993039,0.5857388405917258,0.1785893075344556,-0.028652593682241104,-0.5481836090967432,0.23083005569616577
0.6789071052661071,0.9323108089811113,-2.7663689474953514,-0.6186129143566268,-0.48272321202864366,0.5829558523341756,0.2107591368694036,-0.8455915998434169
-0.023680178968529926,-0.3558994581589261,-2.7166202879756685,-1.1959365437728917,1.7810784679466605,-0.2676025010893619,-1.0126047903129727,-0.39678455974573684
0.9481293124845148,0.68637638875134,0.2320791166890631,-0.12524543834873675,-0.6736463625460518,0.7407387022404331,-0.038923724051396796,-0.581908442339409
-1.616007307734148,1.6600833954942347,-0.8465346302708788,-1.6542120715476314,-0.10829162389032589,0.7263340511834134,0.5246320214647303,0.7200346512488537
-0.7346639270480396,1.2844245206415168,2.701626361708325,-0.6427099380072311,0.6934092348209484,-0.9994253003179595,0.1362421776596223,2.4169917332553883
0.8152338961192173,-1.1363002526530233,0.7902158001168924,-0.04559974357819047,1.5089057179942675,-1.6432041525597887,0.3323032358768765,0.4081537681734113
-0.7480059051336051,2.3838801826861964,-0.48534074088091805,-0.42028411426826523,1.1557826394552748,-0.6322865706383172,0.07963559500805353,-1.0687893649054092
-0.4776048262054858,0.7285594149199147,-0.26661758807594843,-0.5940270776187396,-0.6266744816057335,0.16738362103033877,0.34786175561108873,-0.468990566807446
-0.1130447899518636,-0.6228835908302637,0.6896605129566752,-0.5071920342523044,0.803509139240556,0.9862205303510877,0.48672783550845694,1.1858854082486956
-1.107368284815408,-0.6604538243815447,-0.22562095227318554,-0.6902470303895009,1.172943698974485,-0.5315239115888549,-0.27936300155587895,-0.4406532024598827
-0.19098111617441166,1.024780553924652,1.3998416554238438,0.014431797102518256,-0.7796395339585389,-0.3375399934028085,-0.26239292250097257,0.9364238613499039
0.9362072524377117,0.15266461637372186,0.9511950168184721,0.46338179431987997,-2.5818646762622595,0.7727095899747055,-0.8357572285230471,-0.6479740050809143
-0.9426819623896805,-0.24799536808633263,-1.1927893608617768,-0.05120804775376551,1.6235178535755463,0.04304622584508383,1.4086402615242521,0.5215059534956815
-0.8469791010658331,-0.11545215500706564,1.219276488515862,1.5515043184443218,0.14311128444027854,-1.3049972020828797,0.10877632996272779,0.5217544262456923
-0.9346117626513025,0.15770805836215476,-0.2866174588196993,0.22470145121842047,-1.286075103654964,-0.234939287393266,-1.3448721519556504,0.2173019797691804
-1.2375333745689083,-2.0303864945942194,1.7532690174377994,-0.1776080497757107,-0.04162465783312318,-0.10253120473358429,-1.45666267804022,-1.256875493313318
0.5719874412863755,0.19935182765152457,2.238264208808024,0.9879158100138248,1.8328886874995012,-0.5872328584795036,0.20035591954803955,0.8685744885717508
-0.8053115531924432,-0.9033336149108764,-0.9231147927045856,1.133881924740488,0.8333496851188116,0.8869872754163759,-0.256709147072344,0.9742457356920174
0.8640607206263491,0.5341249581707169,0.013722706336040653,0.8831175703876816,0.7527872650435224,0.5163358297984871,-0.03592488622879819,0.613970751686455
0.5720120040399799,0.8683603229339419,0.4911496467837001,-0.13046001294214837,-0.3623398267617684,0.02697975163143035,-0.7211655919558092,1.9829720025980386
1.165109335836567,1.0080163025884104,-0.6669573533470753,0.7038295714856232,0.12598578203286798,0.22597930756368373,0.8691702423982698,-0.6227995113069147
0.35165679209786904,-0.1461996143211154,-1.0238197538934144,1.9038621625702494,1.7020257255164715,-0.12645914473636652,-1.6642555544806756,-0.2286031991283544
-0.8979489632210155,1.2036218360218038,0.5845698289071342,1.1287442498172426,-0.964439019434904,-0.13767615053784987,1.338659489321355,-0.3022746248101504
0.7955607123814179,0.7394124240521553,-0.0915152090419549,-1.5306343934993825,0.1468094145272182,2.698023192408552,-1.5010597412647784,-0.5630962850799252
-1.847769832578397,-0.8227448841963908,2.520022983772665,-0.23944646972224776,-0.36396131106499674,-0.6915317407726935,-1.3667781374236876,-0.3666242717825994
-0.4190121419982357,-0.6235328816778413,-0.08377822603330576,0.41935931876719956,-0.8129956671718302,-0.5493647096571546,0.040148490290314184,-0.8281086131840673
-1.7437775954108568,-0.685431007368452,-1.8958983355643135,-0.07043597066139012,0.7596905100707538,0.5716834609864566,-0.6163082058164754,-1.2439201410041243
1.1764126057000397,-0.09620919925870809,-0.7300341030551744,0.9997784308931262,0.43603178230984746,-1.4809841535827908,1.527121273716059,0.3526411283472602
0.3840096906683484,2.1782984643416072,2.119486231495523,-0.3547233404896097,-0.4108358718286098,-0.1358411826955597,-0.6870770552103509,0.679414279564023
-0.311697766452032,-0.11098135399843932,-0.40630557795936373,-1.2240355789753214,0.18891125321311514,0.5938965038785204,-2.472844708024906,0.30339846848734053
0.35923368625630697,-0.9655420266077048,-0.09244845800986926,1.0871930448014027,-1.0464801956193002,-0.8191584812498989,0.8944268224268861,0.9584903385860358
0.20578678669141212,-0.14977516303382737,1.7087694925127206,0.5009813590095612,0.9451055755260104,-1.148652703945231,0.05025535452574328,-0.09447404021621232
0.19998160435496232,-1.085775877320967,0.2164534457668088,0.8125764041605633,0.10278431655191263,0.2099403621340624,-0.46521103224556803,0.2887961759358844
2.057634736594049,-1.3774733648532669,0.8467512907043898,-1.9888777155545516,1.2354545858311994,-0.906991818077265,1.0022931481738029,-0.4489653797230431
-1.1987139509726819,-1.4701159617830248,0.6211094487845393,1.733959411791395,0.3385522003170451,-1.9357765056579133,-0.2232507242681435,1.3035934635412059
0.8915418253597623,-0.7755401139797028,1.1570063848607597,-0.7894863015250019,0.1799780490410223,-2.2917767519199916,-0.22363061924562452,-0.4621462075336746
0.3203271928437525,-0.2944780048947561,0.9765551132160726,0.40036662950327556,0.2357869337495324,-0.569241171866155,0.004120506762299465,-0.9314545507406563
-0.708962300513894,0.09761466140300809,-0.1415184864225615,0.2602672676428023,0.21564833245839915,-0.21156592867562155,0.11727976701997231,-0.37701221569536536
0.3067241452983723,2.481734037553812,-1.1130043901838853,-0.8200669528270007,0.6001010451296994,-1.4312358498853364,-1.181908138914105,1.4197473873958157
-1.125779251706119,1.0926509352163583,1.0380236061140173,-1.0863259953020203,0.9478801119614572,0.2711240860364926,-1.9040620877076033,0.8958090793904282
-0.8560560714696638,-0.016296044361629066,-0.06907234105098772,0.6411348566029824,-1.292931911689851,-0.9867214434614006,1.2874341061623555,-0.7655642846784911
-0.37848363964040505,0.9573141639287467,1.3446455313769508,0.08466342391566405,0.32999548844139603,0.6528482302228558,0.272522009151838,2.1095710042469475
-0.06090983223183207,-0.482477814875489,-0.12127416722003954,0.6838977493825134,0.37124113098681977,-0.4942548329165534,-0.18534031710094984,0.16861049257009877
0.24028704100601755,-0.24055473588071696,-0.8978126005706617,-0.07064799787749253,-0.31610183030786376,1.8415925418125296,-0.02395919106012747,0.9284200434848259
1.4646522108814861,0.835241523446235,0.6644642835568265,-0.2659645148429824,0.08204214952013038,1.267137912621176,0.8768513686097901,0.4478202372001707
-1.1372481163206967,1.2546315537063062,-2.72218207198605,0.6016131160922733,2.046541612736708,-0.11523957269164,1.4452244375774752,-1.3374086564294894
-0.5044890517824624,0.20060474887703733,-0.43426441441069297,-0.7025804661357006,-0.4309024072312986,-0.11463495937592608,0.2911418816990653,-2.1787772635692915
0.3571357882631678,0.40659558931456435,-0.06542263257035356,0.21360274826042072,-0.9136451361836126,1.663077791923301,-0.030213314499875167,-0.31265342722062034
0.30534296531149335,1.4785366335735248,-0.8322156671805627,0.9490711892662975,0.34129200211852323,0.9040711263989133,-0.037415212807208824,0.9953707218105157
0.9658965958009194,0.18956180600935263,-0.3701731024119653,-0.5043775297617046,1.793427186280499,2.1055262853417895,-2.3670122680200656,1.0766413525299396
0.2506248980424662,-0.8630674602718779,-1.9166365081995287,-0.5998413032547303,1.2650264313996018,1.0126386936636511,0.5853596538197697,-1.100414315145346
0.4199347720137752,-0.9319954860235491,-1.5148238959021805,0.6400857954653859,1.1776865762924713,1.536947086089872,-0.965741378029566,-0.5443992833023134
0.536462276349736,0.7353868142700781,0.13446429925202194,0.8896239937338009,0.8276788848425647,0.8345607773077354,-1.159085429154865,-1.0307150613764828
0.19280809746323005,1.0499089404850641,0.7505526725173364,-1.2298292583653498,-1.5335985371603702,0.7376821193372354,0.7304971975324692,-1.7463749181751198
2.1203380808804937,0.5633259170851843,-0.7822130165845738,-0.4731908388204027,-0.23664192377906096,1.108119959968175,-0.40476446993715115,-1.8493258804088704
0.9443192961375692,0.7676274740462963,0.573618415301538,1.084961722432425,-0.30076690192838773,0.8775741560557158,-0.036439730478379534,0.49860496464324167
-0.0984641575300169,-0.2936767122112739,-0.8439241128447947,-1.1026248744113114,0.43909389923341935,1.0102729649037032,0.03336228609200982,-0.17197396461862494
-0.11476338495986517,-0.3380267207098764,-0.014426880155131702,-0.40693979265640956,0.44204958992354076,1.3232416354826158,0.4393350450788078,1.9568010876633042
0.7263828318309332,1.7321889271176214,2.1215037543446544,-0.26199492450881595,0.17487989131045562,0.17721500182998226,0.5071454998886625,2.389850083964322
-0.34735919153471667,0.903100657050898,-0.24023311043587364,-0.7300646098951116,-0.6908476167063389,1.8377975290999742,-1.2064520216997288,1.6024245459314241
0.16198434073984722,0.3851314840571696,1.4224550898384218,-1.7545668654688498,-1.2458811307312918,-0.7367089531108113,0.015102137643116506,-1.0824695856247037
0.5668498701824607,0.391715335909146,0.34324284866157767,0.5496354533885657,0.6956821861976016,-0.213566410611457,0.31347574422951224,-1.0062171131082418
0.22733644411914947,0.1613438719936551,0.5565314395441503,0.10266556119386026,-1.2036871641984295,1.2462236192494593,-0.05186207417182778,0.2307766310295638
-0.0427056089448218,-0.22900385168704204,1.843468654529138,1.5455245849589943,-1.6114918003259917,-0.49964192069769603,0.31868532561155294,-1.2936801477620548
0.5999939742181817,0.0775886702439752,-0.8688522618894962,-0.24655374360647908,-0.5853888044281477,-1.4830593321872343,-1.0193603803004057,-0.21612996379904126
0.8602999055788293,-1.3442005743779224,1.298514990401157,0.8960592775079149,-0.6578803144810274,-0.18843458542753586,0.25670220954478734,0.8330941166421789
1.7920968341851489,0.6188386486963071,0.5327508732490891,0.9854014123103373,-1.7671242514482077,-0.778139061065423,-0.1080876656535441,1.6749078451602353
0.23596761248808532,-1.3879639961987604,0.9430005391040494,-0.6118179738728532,-0.8939049487096828,-0.6354140362932683,-2.3873640488101797,0.26787166265567486
-0.278188328384147,1.1124232238395502,-1.129598153480974,-1.0998106458807735,0.25008685328041974,0.34013377392786576,-0.10499071428627775,0.016945184724512487
1.4842805069680178,0.21471613061264966,0.5249723664792748,0.2800334934923794,0.4532085758951505,0.5099788128629936,1.0240223127009256,0.7806441039347766
-0.230369910889037,0.30226676266761743,-0.6099056183359072,1.536196896626631,1.3404358527937277,0.9475103399509269,0.12978975415513294,-0.31797417181477017
0.8743009023755183,-0.582200484009661,0.8216199891507963,1.4859563246996734,0.9891969496856597,-0.3266964340146647,-1.7584615042806724,-0.46104019750256836
-0.9710560542423821,0.35127380592100416,1.3029178177312042,-0.567686923995832,-1.1800227385155588,0.3006924560672827,0.7201763981134637,-0.6977930042610085
0.9297109929686467,-1.7200016072486501,-0.1738544595133318,1.444220784584507,-0.8474448615224067,1.939434581465837,-0.13630667510267777,1.314239982473044
-0.129129267796539,0.004133676359326871,-0.1505554402291556,0.17985853703857824,0.8513647980410061,-0.509522476587364,0.12358069887796153,0.41501889434631395
0.9329636716682911,-0.015077873939918643,0.1977344815575561,-0.01176625858136823,1.309079673704905,0.32964527393927257,0.05002832815701532,-1.457064013182077
0.8805769432569186,-0.6694804010856018,0.005568339772689522,-0.735972340706247,0.8193827819478601,-0.32775465453616076,-0.9131647925883948,0.19046196875039276
-0.20323244251329917,0.4027966952249876,-0.6852280216782144,0.15672838931017566,0.35300931902640426,1.4385502615806014,1.7873688835484767,1.6862283602958403
0.2390190600216049,-1.422336571192406,1.8923633497884853,0.5960903430644378,-0.9402611753775312,-1.9785231006377633,-0.29563917635812315,0.16848526924765359
-0.028448939660529058,0.3085477320266474,0.606621081542386,0.5741711715779629,-0.3960673193442717,1.0405393420244755,-0.5577244218858095,0.5206565003182863
-0.2082817918874094,-1.4297579074652225,-0.19895285831716078,1.5174952149694334,0.9713001325849202,-1.2305846662270135,-0.6595695715125296,-1.2227792237949406
0.5909999731642968,1.2955299359081156,0.17918840665774696,-0.5905113197980585,-0.28542195936620834,-1.1321329833194897,0.07261345362064368,-1.322596827960146
0.9599930832161373,0.1508803871278879,-1.4501968082339516,-1.1463942681970365,-0.07950960623898563,-0.7355174422160253,-0.3903524264753899,0.4499793029952939
-1.676872649038321,-0.04247741146186386,0.5813925219117334,0.464936108428956,-1.1280200421873368,-0.5797122026993704,0.6710051434345959,0.11459475167294306
0.1528603717933827,-0.8577670567737279,-0.1754898878711685,1.661899749608607,-0.5900547856197828,0.19454307531703477,0.4678196387967062,-0.09200899806503074
-0.8816315736009165,-0.05274456112145402,-0.9774691230523028,-1.3340721832377427,0.5642942627872066,0.2593697999120239,-0.4019502496283208,0.1611060686302182
-0.5620244507351584,0.6141193876867957,1.2791164953346243,-0.38897616084287595,-0.5711918214642363,-0.16263668901045697,0.5119607957075129,0.6169651227212255
-0.9386434324508129,0.8506222295066921,0.22844584866501377,0.7114573672281567,-0.3219980042423801,1.6119339648471083,0.38258726725361525,0.8226940577519258
-1.1276169002119905,-0.3558785347556341,2.528979348093606,0.38694762948017847,-0.2964502387467854,-0.5640371590168738,0.5435528733429943,-0.20930180695478054
0.304675290482001,0.31096320133510036,0.6080314358445964,-1.6143811513695725,0.26493727615877466,1.2314762988358658,-1.237258410894701,-0.5964529852964126
0.12610451551251461,-1.013907935912352,-0.12264220260000872,0.2099582165341215,-0.6147523870105114,0.5265309058939478,0.857451718767787,1.2872839393713393
1.4665753367416443,0.23437938430051677,1.2944375339457606,0.5548166318523274,2.170272218986401,0.2872820722803044,0.2291068057260072,0.24081139716442299
-1.6157616744002081,0.8984699322318255,-0.053667680252538597,0.4434772046310226,0.08672906189227922,-1.2354995592240994,-2.1803497911744905,0.2336881823043299
0.11289455288497241,-2.1479985885774915,1.8511765769288344,-0.6124055877461263,-0.014060764523695599,0.6144420355764099,0.7347964819947096,-0.8012014463469119
1.6767098251205983,-0.21194240495665678,-0.8185846452873146,2.4206344883502884,0.7662931035293994,0.2322682098188565,0.005565389776586037,-0.35546118418493255
-0.660559040683728,1.8434249033290289,0.1842164227809712,1.895535840712875,0.40002674307678626,1.4988664862070007,-1.6572700697182263,0.0009073570995495023
-0.7695740138260273,0.42164104758223997,-0.3641044750236753,0.529221360158836,-0.4303329304998884,2.413810988702531,-0.0377780790750905,-0.5529401626952613
-1.0680986768376173,0.7666196808165784,-1.7702688207474973,-0.5199109220967486,-2.147818391887914,0.7717620354256015,1.1743122001212845,0.40941975628314387
-0.6331320669063636,-0.2990765250971326,-0.11735961340439308,-1.0268274134244453,-0.2857060398368252,1.3867140893526717,-0.26226271712276655,1.330921209463692
1.3015018664168778,-0.2296770099474862,0.6186827177004924,0.01335113783383819,0.7196709218247966,0.09869174563329645,-0.7838645489590205,0.3410375295069894
-0.4942385686878435,-0.10788289874405665,-0.9488790002233202,0.6369902525012655,0.152639770286862,-1.0877402544474035,0.5387365663729868,0.06580736059045976
0.6083561050927851,-1.5241974625621493,0.3089841663471796,0.12357739589350974,-0.32345762715256726,-1.3878248926219767,0.1135335795723759,-0.9485162987562827
0.23576703924078835,-0.12715933720094227,2.067252304713122,-1.5371401518456678,1.0812572548528614,0.5883226924071672,-1.9925710340042735,0.04407161704678255
0.7225480517278614,-1.6112995145633524,1.0250974736122511,0.044899311758032995,-0.5082499259359442,-0.08102755207515984,1.36938605319433,-0.17940159553164003
1.0943745867156813,-1.271280333445571,-1.2443205951328742,-0.019701900600468853,-0.16911100264808415,-0.3463916464485383,-1.0284160019003563,0.45208522413491414
-1.756600000688243,0.12116963834889352,-0.9239443346113518,-0.00505033055876065,0.8110699120545439,1.1541477036426542,1.2175751449794556,0.13206254545971946
0.6987442022488581,-0.4094323746212302,-0.13233776536155334,1.1766286944309599,-0.2909636694986284,0.08685069681334974,-0.18240955362160516,-2.80306654064723
-1.0398465947745175,-0.08872403015670763,-1.1385470660694708,-1.9762723581975272,1.4764000438275258,0.5016811932660014,-0.8121953914947179,-1.2685987028522134
0.42539539493317025,-1.3309339912077596,-0.13468510346769322,-0.9774906481310925,-0.13106314380965592,0.878572118244397,-0.6763353972689418,0.906640012365131
-1.3683052746515,-0.010929897960916837,0.04331879393446846,-0.3921408103274288,-0.9882473258604713,0.11408581538488215,1.132880307154937,0.21251297547255757
-0.1701735843593582,-0.6098211502069663,-0.787974090941239,-1.4301929134912315,0.2254374131239324,0.9399057213554246,-1.1822295487169914,-0.5200751457841434
0.6545827999486301,0.7793006091356051,0.4618330920145193,-0.3434125909394614,-1.3636776252738696,-0.4537265510936555,-1.422615201330481,2.020176205283431
0.3490814552833714,0.7793500774128195,-0.06611599919136212,-0.8104480013531253,1.1451828980951533,-0.09777653077358349,0.9454158270475075,-1.4435064271687226
1.084100606159218,-0.018090534415839278,1.8865752063914984,0.5544306282236253,0.514333967821636,0.14622101586707761,-0.08395328646026272,0.7055476249610637
-1.2320310997833859,0.09708720146055286,1.4834354156443166,-0.4559567629022202,1.6981427004195335,-1.0880344025963578,1.2044345522280793,-0.05652124010252606
-0.5352782749287199,-0.10781112976167988,1.2398716832903078,-0.005255322677910181,0.5727246875170713,-0.9574489106748619,-1.0075572419864336,0.29687105557233784
0.9773109849175571,-0.8614597308800201,-1.5315777927855367,0.47418632933090116,1.5732603112575516,0.350504249251979,-1.8926846101858574,0.41694601136966636
-1.4904483620594613,-0.9131499078176869,0.16862327910208286,-2.1789026914063196,-1.0803634406227283,-0.6417027135079058,-0.27468206809155365,-1.3562161570056934
0.6313244841572772,-0.6068956457032065,0.897837388283751,-0.4602335057569547,0.6754815341147926,0.06386655857093593,-0.7303564347149605,-1.0881534944354705
0.07049015154109144,0.9439845764011591,-0.2970491542210712,-0.043025421928808275,-1.5055877442615395,-0.4227959869988737,-0.3355357840400896,-0.3281891348715444
-0.4494064074438082,-0.13547390827335049,-1.2905457762276906,-1.190630373765274,-0.5000138623228674,0.6837599919537115,0.24941340405165785,-0.23855528440347137
-1.0535454585091875,1.1312173354312118,-2.407484853994394,-0.0015312747492140348,1.7211745101421831,0.8054305582648829,-0.38961470403876547,1.3899578539788917
1.1667809651487173,0.09986841188882772,-0.627611502737063,-1.3443719392339717,-1.377938560966498,0.39825043840275215,-0.6220817401039256,0.36898669842890497
-0.2480812713907517,0.6200101339024457,0.07582700655918653,-1.3162299110106903,1.2857403869296034,-0.38798802238542945,0.3383937148104928,-0.07523939824085252
-0.6065242130128334,0.5597013143132158,-0.37635301004802535,-0.642891530571459,-0.5292839782213666,-0.7840888704677798,-0.8313345908967055,0.26225614165382644
-0.3466925382545569,1.6983339118728376,0.820968525899237,0.12301884074383085,-0.15472425277855656,1.3903840463151536,-0.6739541532461788,1.483248199263112
0.16604687419805933,0.11411505849310309,0.6142573369292278,-0.6932179576703635,1.0614970264615944,0.14678851531705508,0.8699780318574055,0.9243334599617776
0.4110078717653334,-1.8029234232743994,-0.4379671880501743,-1.0986541623837827,0.4421464781303736,0.1498849759196916,0.485683572995532,1.8255454736525278
1.313310957094902,-1.4353819137848463,-0.5320620945838527,1.7781625256843376,-1.9825269016536966,-0.17560049224631422,-0.41222076928539425,-0.8314738993968809
1.0367996029620172,1.5322846221814475,-0.80761639665138,-0.10293897574962206,-0.9392518921260536,-0.5316070713917963,-1.7656288366550925,1.4067477775167827
-0.018096382578413353,-0.709595034509205,0.6817516780929136,-0.45150750384712907,-0.8884937527133503,0.057858316591684764,0.4083010739732391,-0.9832823544777171
-0.692984469198482,1.354233449499034,1.3419205600236432,0.07702062344279481,1.2615612942597716,0.15444832805947628,-2.4805661645010337,-0.0018514538461238954
-0.36989949890801277,2.3874623512289554,0.4250416546869995,-1.6197798782900905,-0.45625686499474133,0.6681711886735274,1.2941184863948876,-1.793721979488164
-2.217666691899186,0.36649923210594293,-0.7270897858930848,1.6673037260172276,0.06080097823696379,-0.14419247456963455,0.2340816803525629,1.5969459863725275
0.1118386643595101,0.8796505989855997,-1.2865829239539581,-1.7130090372612803,-1.2597806404420002,0.2056634204960567,0.20946732571581192,-0.2810986689974033
-0.6354948682295599,0.36449339498413064,-0.3971427446841919,1.027796911349091,-1.0873274587278097,-1.3449674735416317,-1.158474665172152,0.5981010297203704
-0.7715348042909324,-1.450849578172233,-0.002127729565824623,-0.42744016765959497,1.1196149932109083,-0.25046719782541904,0.17100314152421778,1.7825309034887014
0.04642443662752708,1.037634144371467,-1.3288027727387874,1.2458839969994462,-0.07122167345053229,-0.8835217406461114,-1.6075203469154322,-0.8294559036658817
0.5103084349368722,1.0783528659561048,-0.8275875714080704,0.0437280893928688,-1.018896237738432,0.26984128905711485,-0.6620514146767804,-0.605951369397298
0.49488986122612677,-0.6686900125204908,0.635576068996039,-0.4865173427942453,0.3047073970722975,-1.6364046678163278,2.3167929445319495,-0.22199608939183205
-0.15653969164496742,-0.3404078634292749,-0.10223653327708113,1.0528799671572016,-0.23735518602701025,-1.225341550363595,0.6044073838351471,1.1877683951874018
0.478172885507506,-0.1410233401290514,0.6981916114718434,0.4779409142113516,-0.49193571027321803,-1.0053422622800932,-1.483712964804436,-0.47906161162668476
-1.1782954804593524,-0.5052516395764328,0.25652733116910353,0.4395573305766045,0.2414486815950854,0.5503720512656755,-0.22680987336521147,0.9151534602948455
1.0172043386405754,-0.8438064371644346,-0.5997760238184265,0.10796166834428078,0.9932331234900735,-0.1627165332215646,0.03800056596286266,-0.9069057131817091
0.40051176444045167,0.600236408038528,0.8630447817757652,0.7931598986102726,0.2685525334461994,0.6150164498384272,-1.1300362569987337,-0.964257425761068
-0.4832288136438038,-0.9221910772833884,0.2084148945043201,-1.3381917123916292,-0.09013100653817764,-0.2792949356447948,-0.3550452734933308,-0.9511760004027424
-1.3201819852510974,1.0158535473555304,1.6667831615219852,0.21254519480563344,0.592040294014929,-0.5033625373557361,0.8496229708752625,-0.13723404769783545
-3.0292296566192003,-1.982699942577635,-0.5110476069063206,-0.6145968398443112,-0.31484312752787474,1.3664204845435706,1.1043562620685077,-1.9572515383182547
1.042171920231349,0.0881046596975095,-0.4501161299807873,0.6973885949116991,-0.973658548612416,-0.17161475258690143,0.5079607054289152,0.052811748912778754
1.3808206362319595,1.8461640085170212,0.0233547715840853,0.898621864143292,0.8423378910224029,-0.6239728908830627,0.777801907480114,-1.2757937893611393
-1.4777049476148432,-1.2643745434749687,0.1487284765118296,-0.4788911946078076,-0.16364657965725488,0.26308166406723127,0.6687620637234422,-0.9938912397091377
-0.06156239900988033,0.5806992580776704,-0.07325833381730068,-0.6057245733095643,-0.520084347012441,-1.3083217628106425,-0.6386299977445106,0.615584876206765
-0.15578800773751544,1.1969438368173104,0.7344990310731581,-0.053193238345650026,0.4123507154425626,0.8173806661180659,0.5569170506595863,-0.8368789709808823
1.6865259361378018,-0.6746602137876887,0.20001175482676262,0.28917301933909706,1.380813338292936,0.31920176194230493,-0.1526614945847914,-1.0630388008492324
-0.18280073197675287,-0.9447062924676556,-0.6450203505899008,-1.152975368794203,0.9638388392509908,-1.7636411745763139,0.40191150646182205,0.2188208401280755
-0.09771718643573002,0.05723831766833147,-0.7825049770710688,0.05560555797512643,-3.6755814182064266,0.11970623852126261,0.6485594861143659,-0.1348411742442419
0.06171387377600193,0.1544019710613632,1.3805724017214807,-0.15947279927752261,-0.7633118906963828,-0.7841548247268191,-0.06729126987938919,1.284044308119427
-0.6355918233471873,-1.7288970702380724,-1.2362967128195423,0.303294014534117,-0.25060385780123146,0.259287046245937,0.23655655163246525,0.8515373308288147
-0.10306674049910589,0.19892021382236866,-0.3878717395979103,-1.242480363814225,0.34915903513109386,-0.10843387714779748,-0.8381257413178623,-0.6670164578036306
-0.5421378921835908,1.824832763404936,0.01636788628517623,-1.2991816038105464,-1.796041745439252,-0.3121181481695399,-1.7867421899687277,1.2325380628637956
-0.08057735173252119,-0.1962991741411791,-0.2525115613988666,-0.890840352425078,-0.5425732814972272,0.1956074204207282,-0.41300800331399795,0.4274282137313469
-1.1043375105014397,0.9437735589632213,0.576372438879723,0.4338996400344829,-0.24756380462791136,-0.3259331129840503,0.21375639063897456,-0.7501298992398948
1.2968315324728652,2.1149056475389045,0.3454157221886557,1.0707124036306002,-1.059013104774558,0.0840517749057172,-0.22153491482719817,2.145946006813751
0.4618314005959057,1.1127914298801196,0.2279025867178522,-1.7878857800631887,0.6984635285375023,0.9529347861210514,-0.7181834374668782,0.13691523476572406
0.0027597953065470015,-0.7380067323525039,-1.3623939708740618,0.6387925045453495,1.252428362436188,-0.13756439264631898,-0.390773251721217,-0.5950336267844576
0.18099885403415122,1.1761241722096383,-0.5334089490716539,1.3719649081442769,0.15510491023396575,0.5476535619659993,0.01982571504374203,0.2993358436738542
0.09501984303438955,-0.15725546663707998,0.6467164939634483,0.26045646554373947,-0.5161081494472294,0.14317307936500814,-0.22999829217254686,-0.252151863231654
0.6256156477970726,0.21173764442344287,1.2443061801883482,-0.16520343542589627,0.36910649053375033,-0.6045650055794265,-0.3087624760989378,-0.36186853250791895
-0.9280881246310985,0.039757989984815625,0.8499476230177804,-0.6728774986583093,0.3694408505821376,0.22200091981988426,1.0346376893880704,2.0895018917429002
1.4575757875150495,-0.05972326749816965,0.3006296594943794,0.05701537237332797,0.5679742275342406,0.06965374662661315,-1.5610954404617152,0.1347522063295071
-0.12393466301479901,-0.009227956940463739,0.3094797850184295,-0.35367451949961365,0.5386224459373379,-0.76833217749438,-1.005550710422174,0.02092259317724888
0.7163432358041064,0.3602473158258465,-1.1777559328575549,-1.0478170669916784,-1.648391880777578,-0.790961121609598,0.16048715664950355,-1.0701248563555648
0.9361745145429374,-0.025971733594367302,-0.018640488515164047,-0.2472550886224179,0.00695189318051607,1.536593389357631,-0.10480254666792824,0.9168554304395841
1.1905895364694787,2.198403584620152,-1.215400197535237,0.27834911312951244,2.3020913455481895,-2.045733011323709,-0.30136605693766266,-0.40338282334740305
-0.9518487274734385,1.0951863928310228,2.1326186870639443,-0.501882886447563,1.1324105917407072,-0.0822024563125996,0.6851581991585849,0.14290979892332994
1.7166403441540554,-1.7721233199019686,-0.31116111753880216,0.2585855096990766,0.7681872199354229,0.7450897205566459,-0.940717480935391,-0.6675553246707576
0.7472858697131357,-0.6860057652435185,1.4317794995309423,1.4918265839851506,-0.3887655976527662,-0.15936024700384852,1.8882554032867227,-1.2937627201933344
-0.876024064334111,-0.34139778568148776,0.5567304422302896,-0.23176650250927203,3.262637588666387,0.2979091138649455,1.253582874277707,-0.2342386143387539
0.4066770095379058,-0.09851306626383724,1.743410533088817,-1.038832875518257,1.041563248240072,-0.9247933859054577,-0.8713985795418108,-0.259419546964838
1.1785528106304501,-1.2644209592516436,-0.519214781393334,-1.4655675075366288,-1.167613730799183,-1.1519502249234457,1.1976804434964523,-0.10404390162236064
-0.9558980369300851,0.5560334320510534,0.1962297729656775,-0.9439290618910442,-1.0857662743373493,0.36762783220530376,-0.3174951619286849,-0.917431146832307
-0.2404333068331309,0.8779158330804048,-1.424461267340172,-0.4565787578354497,0.906678803332066,1.226515739172112,-0.4701715763300179,-1.159187462982513
1.0423936174140909,1.8131938265236571,0.2698906947651988,-0.7399854899755602,0.11278417508972799,0.47683710573540455,-0.0743294420045732,1.3677738783749906
1.07042043968987,-0.7714786502423158,-0.4697754206510563,-0.6319714685580833,-0.7955027828808935,0.9492366604366731,-0.10490342416693625,0.39095737613560283
0.24737425145761438,-1.1148653624140672,-0.41120715320845735,1.3486315797635562,-0.08707560999166294,0.9464417578524542,0.14127015096956863,0.8035994402705061
1.6204548047238128,-0.17054578466067005,1.2617686179627938,0.004120602512739488,1.3791731514266827,0.9759188134376473,-0.8147215777740183,0.33577629963426836
1.7545958556783625,0.8125909830708329,0.24390799614421707,-0.017966515837606112,-0.3925459016741519,-0.39896677805778,0.10333297595561246,-0.7814652837585497
-1.9048448877793216,-0.0480340590636724,0.2373486529682243,1.485650992154912,-0.6563293208609444,1.4132156746084756,-0.16555689019067632,0.19596893917000474
-0.4527948569236158,-0.4347177973954494,-0.8921086556702562,-1.1962445298068962,-0.19226364715017172,-1.7822020802499825,0.6572439884125743,-0.36484443537848704
-2.3963419278585105,-0.00788759454128064,1.7524687265308516,0.020937871630742295,-0.27174645702478284,-0.08656466305159345,0.9191334258825683,1.0832807873612573
-0.18665611928359674,0.8649361322709918,1.0190602995447844,-0.004584181497221321,-0.9575416091984987,-0.2918423779610258,0.9127879061605294,-0.1804579907116752
1.188223264177628,0.47275169326928645,1.077504557261318,0.2793506781958214,-0.8855576696249328,-1.8645548814484694,1.2128767971596979,0.2860313784491327
-0.40323100306182946,-1.2174402850437094,-0.9491329812124117,1.754943530492216,-1.7288974464723588,-0.078432403723646,-0.09058705752756839,0.6147472218330944
0.13535195067369984,3.208978900403408,-0.3108233637519983,1.1637247002700553,2.232349581245829,0.3470235241266675,0.06942548614891295,0.9519336784045336
1.5421390836734974,-0.17658170643841817,1.0858578460909325,-0.8927492541424003,-0.051271829944259634,-0.3535029279033499,-0.6395147070462623,-0.25080252940094017
0.9442471910552317,-0.2184427881663379,0.19114049901096145,1.58071424007584,-0.0849105993877406,0.33170558827629143,-1.2334950354136396,-0.6770091336289082
-0.3819402917569476,1.0254639769953577,0.8109401472932748,-1.1865614367760784,-0.5738523415570695,-1.42347675502237,0.20806741796147976,-1.729947204874451
1.787262094578601,0.0254758641114485,0.1709299145080112,-0.27360625755319123,1.0114713993303308,-0.6268148205304087,-0.6639169639094065,-1.5924220175916872
-2.1488906833121555,-0.15701065381957305,1.8446894756634833,-0.7692899202911487,0.3422436295756253,0.623280324873477,0.28452119351784433,-0.5780274328707109
0.19071942549711474,-0.05452277035475993,0.6754824182776017,-0.11579623365766048,-1.4111860057882875,0.7043281539537035,0.016754506966319423,0.9746572048920007
-1.052687722695307,-0.9829447859215394,1.1751026684216397,-0.5673513305349301,0.89136014771382,-0.47481098401292926,0.26265819513721345,1.1581570285973648
1.159782947733714,-0.3161969488844731,0.3421535805038108,-0.6940409181580427,2.255931747033031,-0.785668441247299,-0.5181616452591413,0.8273897878764964
0.6309019071476356,0.782029199392271,-0.7049687833642598,-0.17463766776091444,-1.0432190509290777,-0.19533295159235606,0.44903949402071847,1.4163359213109852
-1.3427067598308924,0.0530378592514803,0.7340201670321027,-0.41706561827710953,-0.5792456177542221,0.10627195854908897,0.4385536170409818,0.1223926854658224
0.7860044708155364,-0.5140494429055474,-0.7085623445371227,-0.5903370464232103,-0.40928852485423195,-0.8424847914431939,0.4374075828211256,-0.4667372821931458
0.32300309394414317,-0.07568923795168453,0.24342057396673844,-1.5328182553506442,1.0942295459941134,-1.3719807755121196,0.7946508890186104,0.7425259259138217
0.9475436421629279,-1.8166499346735143,0.9720400051577476,-2.274200615991175,0.2919637836938417,0.3030069330185602,0.3834157090351831,-0.08187346766633098
-0.5611638199358792,-0.4196152010210595,-0.7032505756281486,-0.9386660117729925,-1.0346316834178235,0.6974233187143561,0.5980945390222703,-0.0546922553165056
-0.2843594962698804,1.013183593010033,2.109968939008077,-0.14332833134394388,-0.30066387245600906,0.011681967871693207,-1.5125875962515258,-0.7089220498181343
-0.757414924253812,-1.0881591230409695,0.18083994526525016,-0.7286585136067051,0.7815197039175596,0.6726926847697142,0.818446196893522,-2.1804449769525647
1.7932863892070825,0.3759341053589755,0.27637475618955193,-0.12758838585425006,0.649323840253317,0.20563285430057512,-0.044862457279929,-0.48093792875929736
-1.637032778477954,0.12990709305315778,-1.0771357131226522,0.7726057742013506,0.6329456598760542,-0.808194906160886,-1.3937927538665018,-0.9201520492750045
0.6966047049632733,-2.1733505256793233,0.6607800716060359,-0.2518157383994696,0.2658535077054654,-0.17489243794539583,-1.3900681941889887,-0.9183194084397786
-0.5061314137478858,-1.1003399067146478,-1.4278345363958944,0.2608875083622531,-0.12124675150458979,0.026556804695900917,1.7002173500222768,0.001861920915673611
-0.6985909764177481,-0.3970367262700603,-1.2843139867642412,0.6153937777523306,-0.045036240211955285,0.264364878587602,-0.27102875014700534,-0.4993722525712292
-2.2456053713155395,-0.4835468632919017,-0.9366698791145032,-0.43761439834023075,0.4538477617813032,1.5245650928579286,0.5001137259459641,0.2795033266922542
-2.284648899924499,-0.8460400055962567,0.3663273017700731,-0.5725404848311656,-1.0998113562860377,0.045177062477663246,0.7995074940839499,0.3158725861645162
-0.39338856244586307,0.2596126312033133,-1.0697884203869104,-0.1805921539530477,-0.048824407753444286,-1.5166998051383616,-0.591681819752381,-0.4136957305243514
-0.19953984660668558,0.16084172493997329,-1.7626100932049618,0.9421833283999199,-0.7031621658366449,1.271232429309777,0.09875557263395883,0.43787736146353745
0.2228985917703321,-0.9548412796247778,-0.1204316898734654,0.4479862410255253,-3.1572790606423675,1.786369098974862,0.21243167414379532,0.4268473985002601
-0.15185914926722688,0.17679440710219188,-0.820145506716721,1.0932861285395217,0.8220716640636324,-0.5933740266697626,0.1273609259157351,-1.138637152884219
-1.525943437959038,-1.300174563629046,2.1212637058042607,0.5644765716216282,-0.7262225200779328,0.5974396991486212,1.8463108197111933,1.1964563622588946
-0.49026711089281944,1.0900074757824838,-0.1923769418676858,-0.7572248352239757,-0.5134373977295779,-0.413362492187227,-0.5215265154411831,0.545724013264113
0.1927852451151342,0.4813290709766927,-1.474395434874199,1.448197832121425,-0.7243114122927066,-1.1857666398051967,-0.9035422671303848,0.22740308868251183
-0.6611754899210918,-0.2260286482122818,-0.7627709156283032,0.14139032583597905,-0.7853445894616966,0.7004965916519099,-0.5921394957670615,0.4826695334657308
