0.9526609106509352,-1.9649510517436297,0.936531419483049,0.3047775199684025,1.6645725057566034,-0.522896176174123,0.9369911631582488,-0.8034698647681436
-0.10776761477595687,1.2082790504242216,-0.6537212281957333,0.7339407981584377,-0.23954471384757628,1.2474410009818095,0.4246009331673922,0.24181893490861697
1.2180241496944864,1.5071201422464706,0.49629145101762706,-1.704082336986696,-0.526989141349719,-0.45479759825848504,0.16917270836225587,0.3117426710319411
2.007184347184548,-0.3799744374202822,-0.0547432780374641,1.7609007953210167,-0.7414660225762755,-0.046600981481417,-0.5207596805439121,-2.2319238772407717
0.01256561194044789,2.1895831253010947,0.2785160321041633,-0.9442419813767305,0.06648840179499974,-1.5130618572667358,0.57767151705866,-1.8043594394999523
1.544160948375282,-1.1354216903532577,1.223082324837832,0.07417319332632205,0.4480577642487198,-0.7991148280304827,0.4082737943711702,-0.45091771577363965
-0.5872323758358488,0.7753165160344321,-0.7306890994626856,1.170769211861914,2.3043588679252918,-0.19048861559698446,0.03458377010656444,0.8191251316721624
2.2123196635252227,1.001094341064338,-0.10158935128841279,-1.4580431649826275,-0.47413715362988346,-1.1248344357852362,0.2578888613478151,-0.6105291059918163
-0.7615479479864798,1.582083696321453,-0.7719938173439357,-0.3070489887943945,-0.3267329639415245,-0.9350361098646763,0.40865121534501664,-0.8713029459708049
-2.174206059861692,0.6507759064537739,-0.011353083543549788,0.5402841746221796,-0.12296242763648915,-0.19928552682387282,0.15723546781015885,0.4021001360024362
-1.3726677307810617,-0.3679978861481441,-0.005642301242133578,1.0193861551843104,-0.9491354315796883,-1.1324945273554008,-0.2561737781472217,1.059596712650702
1.21861517699774,-1.0930672542128541,-1.0903530013214464,-0.09039031284525023,0.5925443870756543,0.06274462079701708,-2.136724146507599,-0.16475521505535065
-0.2368048973835914,2.1728026366229094,-0.043209057019834525,-0.027596895757222174,0.07768314645507156,1.9244259518959381,-0.9410737926216509,1.0990476683688397
-0.10219880807975092,-0.07369943894775043,-0.1726414982358709,-0.5379555575245337,-0.05083307437731762,-0.8332399746796973,-1.682305973783564,0.941075695059525
0.9221572538831952,1.5580330306841794,1.6050309693734004,-0.6130969550398165,0.5537644267238243,-0.47206958288994033,-1.1261011012817177,0.8802164195778047
-0.44091587441357916,0.6965768829067,0.33671317202752127,0.8178066025039296,-0.22807797680028816,1.7232357368405726,-2.132547919622394,-0.45944769943572183
0.5398388793928286,0.5214974309215195,-0.03328087197641287,-0.7023903519924183,-1.5504370651231658,-0.002930929901666373,-0.28536643859508193,-2.1111385930799806
-0.4207808880185177,-0.5273961215299484,-0.20797227661234557,-0.022807992716824807,0.05669639103936565,1.4266490316581388,-1.2659005243830455,-0.1992217598611035
0.47272698135538915,-0.6012959350285418,0.42682503816357786,0.4602700246650117,-2.841109387790485,-0.3345079787323939,0.9375823257128958,0.3441123487396139
-0.8525944190657112,-0.7972702111556995,-0.8589127745675617,-2.389437318361146,-0.5415464800406314,0.16826313307772342,-0.743131686250505,-0.7732932249635123
0.028565127112788375,-0.17894223694148634,1.0165545762304966,-0.6809644149192597,-0.9671996427497122,0.3588645220503981,-0.34648839819590793,-0.558797747589447
-0.28534977905186776,-0.6077065505840926,0.13712145664897069,-1.82580027407494,0.18757553653298356,-0.7818657674048616,1.2339406315389212,0.6002822782890316
-0.5542915067612404,0.406935048721039,0.2641301489908034,0.5759428125968091,0.7088128410114384,-1.5542461038361404,-1.052991735627399,-0.27236844958221745
0.6847507442374146,0.3239334804721989,0.8000475749648817,0.2012122507638346,0.1687665816503461,0.6681893237237132,-1.0698539636022804,1.3682738891296369
-0.6971904408666282,-0.20052139943056754,-0.1690917376832712,-0.9682742488693581,-0.23926487304706587,0.9746641819669176,-0.8982980407283314,0.21137516776584306
1.0318801346356261,0.9604792915724342,-1.0902897468338455,-0.8764116176509718,-1.0011923425927793,0.9137644793857734,0.5680275948098537,1.5427721338506077
-0.872871562848157,0.6584814512722889,0.09672111003420128,0.8630600990437887,-1.1469576040238683,0.6287306291224687,-0.5621774975611209,0.2868980991700879
1.4906813520973552,0.7993199977326049,-1.3399054937888508,-0.31308404337037116,-1.680948049409703,-0.5248010401412868,0.21262684937252424,0.5083242542384956
0.6379664199311135,-1.2522702347483001,-0.17841292697878502,-2.407400564564189,0.40713576680322516,1.057135630243334,-1.760126421609662,0.20744926342153955
-1.0437242709686338,1.8059031688488962,-2.3619879074491767,-0.7158981635210909,1.2307882641480488,1.0083147916602033,-1.539617080528055,-1.5896382176344435
-0.08161648476157499,-0.492667013251413,-0.16032047759871643,0.35282374446943954,0.7852204749997391,-1.1791325594831497,-1.1716616079666524,-1.259013115616465
-1.1129861939243164,-1.3092444186329137,-1.0599683021170818,0.03720911622955831,-0.2634114770928185,-0.9993461733800834,0.3120955339200154,-0.754178945055023
0.5739993959633521,0.12078894376843705,0.06001411046761724,0.23927976714745652,-0.6830646289584317,-0.0023699171247963907,1.1162942111381118,1.1338715908405645
0.8406711223492035,-0.9711555430948483,0.5650927182268015,1.332234212669628,0.9479943507507803,-0.8544388892358765,-0.28037961629458746,0.18776028370075162
0.20782443111217863,-0.20277787756967317,-1.532696083033995,-1.8641218761038894,1.0611034267580661,0.2180755307273698,-2.438271486526601,1.162924823906619
0.6133970124317082,1.1602459123241577,1.3940312959101426,-1.1661759191845311,0.044215809993054044,0.569450791661302,-1.0673358330290945,-0.7001843521981145
0.4977592444641622,0.08854490905681718,-1.8236793183675413,1.5265584592355932,-1.4783273299090542,1.7238220631739385,-0.42702003668178795,-0.9056051463376169
0.6402900683400673,1.137091435779019,0.8339719424137918,0.9907022659723238,-0.5437211599056833,-0.10500704994464413,-0.5907680360045849,-1.0212518448635757
0.3778367924750788,-0.10376350040268649,1.218907351700093,-0.3146459925236014,-1.1185566151646669,-0.7728965922257384,0.3062688815333818,0.29008215468297066
0.3181543848425287,1.8735864103122257,0.4283874542335383,0.8377132702174818,0.5620104012569449,1.8678858105345737,0.2846148528521843,0.2912122887207253
-1.0573549801235962,0.6051876631229434,-0.3823863568878523,0.03177458820526016,-1.4168746270405108,1.4631952261456591,-1.5543718553061772,0.14699838792763725
-0.8323778109241597,-1.0613993179890786,0.28997040344726355,1.3545582898650232,0.20323698463988493,-2.8080245791049894,-1.1908059077472022,-0.3779365083667354
-0.9300346112535393,-2.4271633942905924,-1.6777842110532477,-0.8455838837317636,2.232172463060812,1.919122167494648,0.8737007895972401,1.1113822499398678
0.9206405630823564,1.0620419030334105,-1.2665443263650598,1.2551169452006754,-0.25437249352459207,0.259259896717797,0.4823710387977741,-0.5373652561559394
0.45891356195149013,-0.5403537310169192,0.022126422496083237,-0.7481004616990338,0.4773742878578159,0.7255922641726438,-0.18426746375870162,-0.9898856737939634
-1.1136401756997487,-0.8480698463316138,-0.6319771348613159,1.1819131756534709,-0.14012168267986905,-0.2361723414319218,3.1311932694459017,-1.5141331831327975
-0.7949959061070277,0.7695452912158189,0.8694006852176978,0.9296190034072926,-0.30865722969815146,0.8979036967538621,1.5701653995612561,-0.40745349072299947
0.40139226621199897,0.15230779394277977,-0.6074309606963401,0.20935020137006108,-1.3501549183429131,0.23466243468352876,0.4576565326940162,0.8061472541082825
-0.19004982788916905,-1.2521852673249312,-2.2830918299606227,1.9181269341850737,0.07685350226864623,-0.3129408967579786,1.2564017354222732,-0.4696757884993069
0.3912058034120397,0.3201182564534701,0.5926745682411879,0.31126138592945285,1.332273524132359,0.9639239452792079,-0.843984866355364,-0.6069016478048262
0.6426369537415959,-2.0058378798096657,-0.5261233314176724,-0.19588898690346,-0.025180865703522404,0.10259581936869175,0.5058802134430944,-0.4825990024820891
0.8099611760615935,-1.0013028951509269,-0.4431622820548015,0.3821068730093448,-1.1366305726780646,0.5610908747424872,-0.8489992389996533,-0.5335558506831972
1.16843552740291,0.5372229362469232,-1.9342097168119348,-2.7293821558109537,-0.5462713965197901,-1.0024440218500792,0.10225774832059382,0.6175225841959715
-1.4647808616801103,-1.2682253987721155,-2.1063256354120568,-1.2247405114139298,-0.9144506985983423,-0.624031479336198,2.0044717850567917,-0.06425557873126755
-1.1431268337376455,1.0979293912463293,-1.2257138370777751,0.6630647817432781,-1.9529506836673696,0.6686526697309823,0.1503811887045605,-0.2515773135479539
-2.089571079298203,0.34287589470448,0.855653124303204,-1.139962660503121,0.33766744404020127,0.5610354863010693,-0.2707999729391386,0.5287302320014876
1.0347797865616992,3.4005391809576317,0.7992044762454309,1.3085700510980203,-1.6446792859856667,0.04799153853367748,-1.3626343117216027,-0.18929105520644318
0.2529465150084406,-0.9711757695003991,-0.9410466521714624,-0.9391244250443707,0.06433279440922579,1.0860643201268068,-0.12909824711636356,-1.1531990365556684
1.068818095368263,-1.2614734568059986,0.8903216595096891,0.031439993157744185,-1.0106103574844096,0.15988995851349247,-0.8826630294639669,-0.01647703637892953
-0.9688497376057816,1.905950371227327,-0.2694832303415856,0.6502449856250445,-0.5276087323899542,-0.37467676764799285,-1.231556946845384,-0.12986215671345097
0.30806924474359276,-1.211154928479936,-0.8213791285006165,-1.0034483645307075,0.6691998050783018,-1.3884721888973728,-0.2689239233491047,-2.0279610378834967
-0.013037781806268389,0.48792875389449314,-0.19871217587312934,1.43050885301384,0.13714072669041025,-0.92342035543895,0.5734469095478114,-1.7943917391403716
1.1061467959519442,0.007241826040590028,1.4267577338638497,0.6345974236180518,-0.002645043935545272,-1.344846216984843,-0.9276990437718752,1.10697526547452
-1.5855408914849702,-0.691009753446234,1.0326073317961795,0.26368802483866066,-0.6119417088830553,-1.0880095521415334,-0.7686410360769602,1.070856283466505
0.2980511210096761,1.3486384051717215,0.23114826817299622,1.1652832286041568,0.6931088545703811,-1.0808970584475266,0.3419607492927522,-0.51117233886916
-0.20072752066996769,-0.5699858666354408,0.16583019604870136,-0.05833064841134461,-1.735959191927889,-1.5282969695969217,-0.43265388796363496,1.1566325705348992
-1.2689579824803892,-0.03970504639031009,-1.8231262848460874,-0.4636977975133618,-0.37247288112177934,-0.747198337958595,-0.675117548814834,-0.07324328187167449
-0.18856174866053815,-0.05579196493344249,0.8765487368632615,-0.3944070632209149,-1.5622708923431097,0.3492386279898861,-1.4527236923136198,1.8167301444599973
-0.6325920427269066,0.6807146599457584,0.1181417774764944,-1.2446094449215577,0.14027817160988118,-1.0317826186479255,-0.34067631958733346,-1.3415709400215763
0.6972224277947505,-0.8207218944612102,0.7153271460239193,0.3681040128983966,0.675420773770931,2.608506941144122,-1.8041798203000032,0.29300374487685593
-1.3338500086513414,-0.1065730313916128,0.5283011232687389,0.5776723808621144,0.8162787947240893,-2.7659482163168283,-2.439805993134214,0.7298032784619456
-0.09531893017166539,-0.40053042630643615,0.11143200032506183,1.5314214853371815,1.2692714308967443,-0.9444681690463697,-1.8250295664637584,1.5570810289097843
0.5794267161631067,0.4548463678316831,-1.0054404724238495,1.028199068450213,0.07607632420021963,1.416645190040722,0.22326062281403808,-0.4121138676003534
-0.2113436422848415,0.2568645150998328,0.24317280827689564,1.1753196808678399,-0.0768528866800423,-0.40351081626622287,-0.2598626738631902,-0.5618028241018028
-1.5564006864925675,0.3551253337908278,-0.2757910307941092,-1.6140784138420368,0.7152747395435629,2.416800838644105,-0.3777472522368484,0.8138078452913414
-1.5173739748061232,0.41501014522180224,-0.4468789821884993,0.4354203355397831,-1.0890257428407804,-0.3122656646030735,-1.126581014554818,-1.5052210558315828
-0.9636262051410426,1.002073556289738,0.21629841762766888,0.17686476276360757,0.17877458217187933,0.5152540344242447,-0.4644914209740462,-1.3931703104806308
-1.1200494420437754,-1.942134511458297,0.08029191386598768,-0.818135635744333,-0.6675108614681995,-0.16625563953277403,-1.8228505680621676,2.25354328136954
-0.4604622545928146,-0.9149894767727667,-1.1571901709699604,0.6545713206085052,-0.2826319207734319,0.06725709797828756,-1.4442207628212416,-0.8541390457194237
1.6844428371247597,-0.16127144840450566,0.16004305277633896,-1.295491580108218,-0.14534212527048135,-0.6321822173543248,-0.49806284805476225,-1.688141789459329
0.4690082606463937,-0.569530969613775,-0.15022073908597164,0.761546412527534,-1.4756838073932612,-0.005298004672327965,-0.016927139361423035,-0.38200434895891183
-0.10709148656480076,-0.01362519107649173,-0.5451180929285944,-0.06752393742822418,2.3364587237275205,0.3501171893698005,0.18708266759734832,-0.18446525010084774
0.9076057580485546,0.15382784137167538,-0.9381653756274135,2.4204759538449796,-0.3362838752213692,1.1319475648098802,0.4435747984546391,0.532150822998029
0.14966251336000336,-0.5229333365940437,-0.3095027056171677,-0.9141844636635275,0.8404054028986178,-0.5690027007945472,-0.2561936660333036,0.030526736439962
-0.5200490135407602,0.7235457894245872,0.9846949443005388,-0.9282352314499306,-0.10733662330341374,2.4024669974919624,-0.6691673058441422,-1.0145440584688206
-1.364184569228135,0.8837634335498222,-1.869618067767151,-0.13370988986463372,0.5764503247052287,0.9864617533190926,0.01617884042105555,0.5024191448626928
0.8709263519040306,-0.3325008003066691,0.7002324564102964,-1.041354142740051,-2.008170752123996,0.34901833876439103,-2.722986632190051,1.054727830179988
-0.33517955029090796,0.0821790894341614,-0.015235154088677823,-0.2182867646759901,-0.5297139099970165,-0.9915981033779745,1.1953771804727722,1.100385475758996
-0.12030997879354825,1.1407533100098803,-0.9354352681362104,-1.4520806140418587,0.28484544966290615,-0.042936875173988115,-0.4737008316892013,-0.6068976792134667
0.004901919338263957,1.3333058845353356,-0.9348083545388686,0.15438241850105258,-0.019190343703388783,0.3524535311832145,-1.1711397908215855,0.41258117015214835
0.7323500917140932,1.5753986595847864,0.6230780803040141,0.07726638721875598,-0.0837399372025193,-0.9227785715019148,-1.512900576695061,0.7939163272123723
0.536149167909286,-1.0159472386177688,0.9187784168094637,-0.6423363762276089,-0.9039209565640909,0.9667679273222148,0.6353398123105792,0.05652215729680361
1.0097019098357967,-0.09546969495474406,0.7089456469626056,0.6925622679315785,1.0119336246045416,0.03382281825812536,0.0624304660692329,2.6739115667994837
-1.8545891495744218,-0.5452417636559362,0.7583813317363947,0.6560853631406666,0.024767821766778417,0.3348408927398586,1.1883868944536382,-0.11993825566369072
0.2671659206184099,-1.1061238979794055,-0.6495021268315142,0.12879035930148766,0.47417507430995126,1.2205004122474674,0.36851300807237886,-0.42153216997268933
-0.31614340387131035,-1.140215745931253,-0.7148487097008495,0.7380662368419451,0.08829146477664619,0.7238335149427954,-0.34466728905442673,0.47283684718086927
0.424685445117117,1.593614321358245,-0.5111522331578999,-0.04527115765415159,-0.19262109207390007,0.06416816560244205,0.6216514036777689,-0.3893158316385455
-0.16889883004506137,0.06429947173665662,1.0275697260357497,0.5487179429871446,0.8124301024400808,-1.1126753980778128,0.1436503097406235,0.8007567725639555
0.3044908869553169,0.3126063530177544,0.4450125259069748,0.6576865511729284,-1.360821010703458,-0.09863486306763614,0.37676719945092985,0.7055738946643183
0.39613546484821005,1.0791570384622495,0.23412560515095837,0.26374952172188276,-0.3552209807970547,-2.173116789368344,0.2580735096475147,0.16702814385245862
1.98301847552905,-1.4098851096591234,1.7066821262105136,0.6868019748981581,-0.3329915884734668,1.6203359968457867,-1.1656929915159773,-0.055704713527227924
-0.26752851525815136,-0.8246638365198101,-0.3256320970659264,-1.802892209714957,-0.1469908826807817,1.14430081395823,-0.0868395305270039,0.7939063259249424
-0.20659360059322274,-0.015936752565376085,0.05031895876325682,0.10875006491878893,0.48508416519821035,-0.8199652825084079,-0.3345119703133387,0.4049650062802827
-1.7807326373769463,1.4251631539224778,0.7159205081359052,1.2945549611424376,-1.9690412759958336,-0.41447644218930774,-0.04639249860841756,-1.0264798477535813
0.9423312337460744,-0.22028934534963074,-1.972255914676297,-0.7882805380574438,0.595747759086496,-0.20996209271995367,-0.9857351416572655,0.22392773879623634
0.22920823427919865,-0.6523166567695236,-0.2716894085786494,-0.09092056964251007,0.6232132245856726,-0.825227914517271,-1.8757948748107836,-0.5658990777366043
0.6440944640041417,1.5946847664315966,0.0333119376928611,0.955091204460927,-1.1164773745946477,0.6815970922937865,-0.5860233639194506,-1.5795722562834127
0.425206315714199,0.2710548145905931,1.2477006317422006,-0.2522643890384049,-1.010630270483572,0.7918621296690299,-0.32135011760476945,-0.2236241291909762
0.010112091467392554,0.2905125854708779,0.8629995481910944,-0.8594960089682522,0.38933440865145885,0.056195078785267596,-2.035124143266634,-0.06602428016452393
-0.06339705221684976,-0.2867423652045706,0.1456863509048532,1.1658139060246895,0.4545298344453822,-0.14115934705573466,1.1518456312555085,-1.003818899103421
-2.230418799474448,-0.2596683075225206,0.48412552716391316,-0.764240255242363,1.0896437801062344,2.5983997159276098,-0.16811738415097396,-1.5460115127736995
0.7783025717277748,-0.8947686262926761,-1.684458288195385,-0.2560698954658419,-0.2792154463278926,0.4640926621565982,-1.1778917093154158,-0.517950228524511
-0.8992526785153401,-0.04658939509257787,-0.7895502585836209,1.303695811553872,-0.0461001225033335,-0.05120737875562627,-0.5696945573674244,-0.5273752103816357
-0.39992647884674704,-0.19838844847704265,0.6490449212604827,0.23509674934370464,-1.5540994257840233,0.34078212829433274,0.6138422735175675,2.914627425454099
-0.21232403287089296,0.28481393841769936,0.9182887690353632,-0.33671350000565264,1.49776620179756,1.6771210228092324,0.535723811983237,-1.540886482373235
-1.2842356623826794,0.6026474736911624,0.24316338423345385,-0.1437746276104789,1.9132167575550494,0.15332766742478063,-1.5313227954248887,2.4006058174047435
-2.3352104131529265,0.7227066276560387,-0.14621012543203082,-1.506381675724869,-0.914740433676421,-0.650923043413688,-0.31265157592897547,-0.18873415038439
1.7375826823396154,0.381042469640944,0.13172477219243509,-0.9208330155367935,-0.5368555270781209,-1.9212187144866628,0.8922001585265111,0.7476283860858377
0.017847377699983753,0.03384021421432484,1.7510704669051755,0.4227073816539956,-0.2164181608366519,-0.16754226842009434,-0.3772971136923829,0.805545499375098
-1.7145211720891627,-0.03447716086055006,-1.1219912265846763,-0.27094180030767645,0.336729922508822,-0.639617939508027,-0.38438111123737806,0.781227821258038
-1.7248652460970575,1.5280699466879981,0.7225801999983442,-0.019550390401883565,-0.18004851945603956,1.5520748983932005,0.25449095465209365,0.04380904184789767
-0.5585071787890298,-0.3090074123137549,-0.654799469772318,-0.7978709335086601,1.4604550083538799,-2.167386154394017,-1.2241372647024271,0.8746757565676662
0.5016800425092901,0.9491518893273629,2.464006113189108,0.03913551834339881,1.3823936207650784,-0.07883403487501932,0.6232888839734879,0.09196465601328505
1.1710445037171797,1.0404761418778097,-0.07272993920279082,1.9166371940990097,0.021579350633535894,0.6306505988326837,0.1898182690384482,-0.322496754044995
-1.2272089339883645,0.1973009311198497,0.18533775158775792,-1.1063247795529645,-2.1318713960707956,0.4754619037963711,0.005164674207396477,-0.6556956911604189
-0.4363627344748598,1.0598657378789103,0.9179051782970925,0.08481032176164394,1.1163708406678956,-1.8469337728238717,-0.09354203605326779,-0.40397459699893246
-1.975221079983537,2.109025457824824,0.4226576517796246,1.6507851646297458,0.9737548099021008,-1.4763645814708914,-0.28046503213041357,-0.18519502100142124
-0.4093961325856377,-1.0130405404233784,-0.15965185101253207,-0.7286770818622128,0.5684364211003489,0.311197812959756,0.6596174731884858,-0.09503608941973209
-1.5476888624227143,-0.5293114361334742,1.499815943477184,-0.9887393805859239,-0.16049322768434138,-0.10272527368613156,-1.5961118729718125,0.9279890778692437
-1.6806095743140559,-0.9626995350379983,0.5354321673884923,-1.0618709225354044,0.042026108672993515,0.07952400057770141,1.2369380601872386,-0.6248979113522932
-0.129229327730971,0.5076016853688852,-0.243365348680511,-0.9976882198878808,-1.1137208689200382,0.8883902108249032,0.1604034808394241,-0.005372618752841351
-0.12581074019434826,-0.4119809511766659,-0.018880813232970507,1.244422129539529,1.2738713205866814,0.159059204207354,-1.9618437939504407,-0.1598945966630419
-0.04645170260519436,2.3860946012648596,0.2284948029069424,0.4652223077329029,-0.04373811537677715,0.31778462991539436,-2.3355007498111626,0.05092007832184801
0.9221355168247481,0.1344403761867726,-0.3657695365176708,-0.47347669328160086,-0.7835668396363893,0.8370273962199841,-0.47080962476368615,-0.8533182472565503
0.1129643737628618,0.9929690278717614,0.6745970081299286,1.317945294590827,0.24840076227458813,0.3955234320279641,0.4916318969625619,-0.8121798843366618
1.302961934989264,-0.23352250178000467,0.5387404464276581,-0.171103331753741,-1.9738792386647734,-0.9008283403248721,-0.18214980147370782,-0.3211251477808088
1.7257513571989334,0.4076378071174317,1.207882075683325,0.04062722897399904,0.3206338604202888,0.3559232735098377,-1.3271982286011024,-1.424826312132301
-0.018577910545611812,-0.04656655989865318,-0.0017081827051823508,0.5708910324678305,-0.0013227955479664384,-1.2112037661224677,-0.5533427490308814,-0.5132319722524207
0.053486516798768535,-0.8625688881322296,0.07161251842679033,-0.30259406799188066,-0.06652500107977445,-0.4975072370128343,0.20260619300157884,0.5180176413814491
-0.9109545008544159,2.554169406973934,1.2865424338455955,0.7557116469564951,-1.2729106221554376,-0.15295454017115803,0.9814898004206719,-0.6179295277226864
-1.6456673773116883,-0.9044140251514862,0.009620194217445222,-2.0071541079693973,0.2249632615826399,0.3468049919334414,0.42662925136835395,0.8413003682105468
-0.7139100877803947,-1.3722119841143547,0.573797385109198,0.9570968201528943,0.194785123819201,0.4021625603318934,0.26546702857425575,0.5161948582897717
-0.2322177052631035,-0.7323296701406076,0.15836917377458362,-1.6294333007337443,1.1626240584417133,-0.2959673766360696,0.42687347470293335,-0.3793572972027253
-0.03361206567372545,0.28268078472985747,-0.6381041528180468,0.8786450425840301,-0.7241161498672208,-0.8633078518483048,0.8980423250898619,0.2682166640509396
0.2433333045825917,-0.9784986186244384,1.212517603123128,-0.8493105482221273,0.4104281662241664,-1.6523139375206681,0.1925211064260865,0.18566450809650575
0.3582972757802057,1.9887007037967492,-1.2681510640251386,-1.76268043685936,0.8044501513654386,-1.2834706841338033,0.8377954877690922,-1.318975653486656
-1.7838258372178775,0.8932658942744324,0.6072745485911731,0.8664011848271148,0.7731896125473243,-0.18827913220208645,-1.1448629868097988,0.24005011041357366
-0.7872312831289195,-0.8616913716643813,-0.7679041341186861,1.0563284302794747,0.0776109873405014,-2.110708338429678,0.9484410085570716,-1.3808482983299517
-0.7346994444947299,-0.6181891123758603,0.43438720288633115,-0.7304365935660562,0.7775122537915773,-1.655889922856655,0.1166488358583895,-1.680634039195256
0.6233772662985919,0.12009123870704806,-0.2264763878759027,-0.4543515511088205,-2.348343698759755,-1.6001907796878452,0.5980415760945927,0.366822223777648
0.03203841592371856,-0.6910804436307573,-0.19044375387584703,-0.35366189487040534,0.11921851064979032,0.8198219128552932,-1.5971489587620777,-0.34012130911673794
0.38605280054735525,0.3723491252162094,0.40073062108514834,-0.42619997429646334,-0.42960995119927436,-1.723965568971756,-0.3400438077299029,-0.35910520997779466
1.596787548133121,0.06487123363703971,0.7727614910808224,-0.4481082615734503,0.38203385945218177,0.9946936219684914,1.9316903512587633,-1.1463343033771867
-0.2375160814952498,-1.7673590076229497,-1.030009045811172,0.8923466783488176,0.5190816833190669,-0.02106437699454787,1.5255108031556823,-0.7549714733345574
-0.658018604947641,-1.0568521324835427,0.6161204170058906,0.7434358602284887,-0.25308639169066516,-1.4232849247068284,-0.997604962140954,-1.4768623272085606
0.16614956797525224,1.650380683953572,-1.4492552701837316,-0.3598675514410509,-1.336955987780515,-0.23537525303819093,0.7006448194007013,-0.5086889385036131
1.251128291859747,1.0257313644350126,-1.359824950826618,0.48078026204286384,0.18976737999584806,-0.09630304253310178,-1.4101461795254733,-0.8905151110941747
1.7964725173139682,0.2478826893374033,0.06981798989468849,-0.570719741767722,-0.00282602655896113,0.5416019427326102,0.6525772397111951,0.6352979991774435
-1.5248398825982379,-1.2967550564016594,0.7116578477338031,-0.7410123376284843,1.5331533011706198,0.6025168461791514,-0.2414809141728815,-0.9624825508840394
-0.417995079740593,0.26202330209125313,-0.8555549242130813,0.5608715269114525,-1.489017086368839,-2.031391248940181,1.1064231749328541,-1.293091754814624
-0.5609531532851506,1.2884415243192966,0.0025045721218950752,1.3176606550817214,-0.8240573213563325,0.41361962831985594,-0.49357688823927826,0.6129332854934998
1.5019375520700076,-1.4096510537474802,1.4548817392068856,0.9267554048164296,0.5987703813571328,-0.20401347143375087,-0.27625065292840434,-0.4749854589032214
0.7226170140230113,1.1424902077482677,0.7484738724674208,1.4472378511544204,-1.1586455960970345,0.010658178952966557,1.4383497161070322,0.8111319502229871
-0.3463105821256182,-0.947355452324237,-1.1077634892117436,-0.39715280568745387,-0.7041308285224019,0.8145718500964453,2.5253331602450046,0.28780549199863253
-1.487412034747259,-0.009630374219011233,0.8460555572619767,1.332948348266198,0.2162359193436126,0.8275645073934172,0.36158094095741544,-0.2917992316438255
0.570406780829633,0.6083513775920203,-0.14829150516567324,-0.9746626228614744,0.7903901104289301,-0.13760339545007674,-0.1259033723887447,0.18377165164367007
-0.10966950870269672,-0.7700570032924104,-1.261314924993857,-0.4830642508639581,0.6437231335642217,0.31797198231781926,-0.40413473822367074,-0.428262705975396
-0.8881343735934374,0.04639633894235921,-0.8104007342436531,0.9960500716170907,-1.2681730628043257,-0.31234413646094333,0.8032207164828877,-0.18772406573104808
1.2257135053221948,-0.03215310161921267,0.5441209057649804,0.052936476173264496,0.5337114207350543,-0.7443817078030176,-1.9207147153266941,0.4659334302951418
0.23698492194087772,-0.00481919338523188,-0.553948267186732,-0.8906331153841202,-0.5478471477972309,-1.9720538611794585,-0.27102461863903554,-1.0996185242977512
-1.8573698396964164,-1.158871245746008,-0.2182148454597854,-0.7591684475152101,1.4123550929116249,-1.628749138201422,1.2919853517711062,0.5322882380594429
0.4051692996883882,0.5264933870893728,0.021527664306985772,-0.8635059936204169,-0.3533999393357485,1.458954681387152,0.8709806469058711,1.0915176147172827
-2.5975009856642717,0.10856547497022082,0.2966556556729202,-2.96273382982384,0.17007743118697666,0.07542066612831766,1.1681049979592764,-2.2294295838325864
-1.0544052013416458,0.5688508900078098,1.1751768233095248,0.22478635437029512,0.08278238587472388,0.641222636083941,-0.18242643536355335,0.646988002193505
0.3767512243594598,0.15547879419497942,-1.8261349487017866,0.077717114894663,-0.5247393122798547,-0.6629370878930919,-0.3446428747120262,0.4688319896393302
0.9859349961752985,-0.30926338592971053,-0.230613480069528,1.1964999883071552,-2.3276040780706193,-1.1555311155344874,-2.3443942130496143,1.0968928583559001
-0.6498214672036036,0.049489639343827344,0.5519346854541248,-1.1981005632810633,-0.17032188822485755,0.6552968269045745,-0.36697224531871947,0.20723644779689498
1.6919474925419613,0.08172164762124492,0.8978034736992542,-0.6250040298565842,2.1707966192552655,-0.7469020804149172,-0.3575074646202666,-0.6800124008768782
-0.9166769879314575,0.5639576329478692,0.44194747663311096,-0.7237863837317938,-0.275122472807445,-0.39868405233443394,1.025196704134374,2.259544656674423
-1.9193791122525907,0.5706908601946358,1.0740669304378598,-2.1997528212410917,0.750966826477291,0.8038852980866743,0.05219797099698296,0.07399668739751547
-0.21113870745689725,0.2544064000417405,-0.16098086158343383,0.3876593075782026,-0.18322832575748987,0.8663777707630371,0.6438141462110586,1.4869513125681224
0.303606418061826,-1.3740994353424487,-0.9460545922207284,0.21408080368166635,-1.154265723026535,-4.73640239360062,-0.31728594215239075,0.17937716712649518
-0.30628012071007304,0.10346479852586718,-2.1771877051606254,-0.4998407064967239,0.699148691690628,0.22003892747758846,0.71941468012493,-2.7702244548919506
2.01050399815538,0.15855896646069925,-1.1483368093202801,-1.3817477157341849,0.026642736948006288,-1.0784461984231952,-0.7308796697520152,-1.7589017240920808
-1.1153352316906304,-0.7009277768928276,-0.3387673823035454,0.8132497848944722,-0.6926625248469718,2.09262122220649,0.43564722157000735,0.27099609402840436
-0.6615120307907605,-0.5797823377738069,-0.25519407297468794,0.24396831872302951,-0.08182877374962018,0.06698936565842739,-0.4380299161269056,-0.8661700877641728
-1.5795766429361806,-0.41832531622404817,1.0025224981596181,-1.4556756819777492,0.2885049759429792,-0.3536183379547057,-0.3116344591297544,-1.2761087045749273
-0.38948175714967986,1.1754691409187725,-0.9716267093588786,-0.32492347871906574,-0.6292140129269758,-0.017285690020688364,0.324170030373021,0.09503372318146208
-1.1509120842951936,0.5085345533761062,-0.7169948548534463,-1.6344773034147109,1.1000933063763214,0.7486340377513426,-1.7026617933158243,0.5370920867331402
0.13087661021607738,-0.41625269284061844,-1.9382389023701363,1.2379105205137437,-0.15787349187596508,1.9134866477081929,0.7674149248670868,0.6969085316002512
-1.0761327751044956,0.34693668942365913,-0.6166256236068893,0.4174985664343182,0.042096564913428954,-0.4424003164394083,-0.14277540994942337,0.2693466039586343
0.059635045367119124,0.1670920720218388,-1.6395380585133847,0.809232698594201,-1.6380192907436193,-1.2256759412208063,0.10367578574170583,1.0715332418145562
0.711271042515974,-0.9022524525406427,2.4421107312860686,0.1811262020340633,0.6027753057589704,-0.9073692036324185,0.5071797721447194,0.9313703983374263
0.6603657162449069,-0.6137918001640551,-0.5957908719784887,-1.9074431592605072,-1.2357378550826397,0.16995341706044867,-1.3400787776010206,-0.5624618224815854
0.43728560956406426,1.302719601621989,-2.0659838411960925,-1.5879366487193518,1.791395835988918,0.002604614458534021,-0.47160323272794374,0.6310692647740312
0.8960787283432678,-0.8584211936245313,-0.06883690840670746,-0.5706000833202934,1.0991903886506234,0.15794129870466947,-0.2371968245272751,-2.2012694738966263
-1.410713086320368,0.04383506849463863,-1.1016025749540928,-0.31264938165483697,-0.16555176939254476,-0.7435278888812762,-1.1238274231061387,1.3285784670274388
1.3159418369445748,-0.42889393546262045,0.8762445706485436,2.25742174034071,-0.1780929515924742,-2.3244288309076957,-0.3548088243022708,-2.2442556356399166
-0.31155632346869866,-0.38603950703040313,-2.1064238503324386,-0.8292145644475184,-0.19370027028407164,0.5094040966728528,0.014049889609429534,1.7314901641173974
0.6160893722683286,0.042877818451619094,-0.11668775399683727,0.04840981285422793,2.8087007732040736,1.2214285104134286,0.4050372782897313,0.4175989001292052
0.495613346039167,-1.351257053470461,-1.1645582264144816,-1.1332199709747948,1.6933044803021915,-0.2671661995577882,0.15364538644804354,-0.6072529136261822
-1.4134354520436576,-1.1774684285555446,2.513322872197598,1.802707602472267,-0.5835046550900329,0.1959854820380289,-1.538678871068102,-2.219097642977813
-0.11248145767568331,-1.760357173104908,-0.9260646976208473,-0.29950665234136525,-2.194438135758161,0.35338761870273616,0.28441905964673636,-1.8825636205797596
-0.16511775399175696,1.264516075422362,-1.5879357335506066,-0.6200362331855351,-1.1710549485983572,-1.518481915790993,-0.6292284535320485,0.3055904934417718
-0.3873416646966138,-0.29351445816133287,-1.6273620932126542,0.7995374866959187,-1.5378123266692496,0.6762989422838205,-1.1232999972449556,1.0718591088314464
-0.5614445194083623,-0.13285909817293315,-0.828702549665529,1.7885028047123912,1.395162636276201,-0.3302588095352292,2.180564118467783,2.494915718086746
-0.15430635380623492,-1.0107009534322002,-0.9803565668500042,0.4748508696731431,-0.9377022289592467,-0.16795794781983406,-0.7767142476486797,-2.6430794151994474
1.0300100820524696,-1.8412619764203166,-0.43138245897603444,-1.3404140016396666,1.081400652618649,0.033926495286136234,1.1767310036475611,0.5688231983873939
0.6907628509985478,0.4411656282768619,-3.136638840621774,-0.8335675860367422,0.17090697422014323,0.3997945389719192,-0.10694295723238331,-1.4581831599905712
0.3783720023504326,1.3163190061555181,0.7996360215893143,0.07433081398243731,-1.603220235698543,0.6555701077805032,1.4786721241885832,1.4072643006760304
-0.650478752048508,0.09543844840322167,1.3054141503987866,-1.2210570853411764,1.5326532060766955,0.31384893363206723,1.555040326133739,0.6449923714816896
-0.34581363867818415,0.1645026516512041,0.6778230660705884,0.3139802686600238,-0.8218161389767028,-0.9928057996430184,-0.44287464218080413,-0.8973517498218235
-1.6503384611370875,-0.17789925431604287,-0.3029224510141924,-0.7067200466204749,-1.0608967106908112,0.7204146740910929,1.9059458495103498,0.6843861325386132
1.3180824041712338,-0.114383170822677,-0.34181458682576865,1.0586646170653933,-1.1422689746224517,-0.6060795935446529,-0.8299069868245371,-0.2078654408508137
0.7299368152719149,1.3998350000916597,1.7289704411403244,-0.807025440460366,1.2045129621745523,-0.2043863890223463,-0.4353792482287149,0.9635645816865646
-0.19622182014616277,-0.14882333238879727,-1.069565224706382,0.33065448763996974,0.061499306855765656,-0.7151580735273674,-0.7451474080899543,1.1392588754729023
-0.6608130970142875,1.3553211778949745,-0.13964537866693172,1.7793906503125407,-0.7353137860440857,0.08667089305964921,-1.8319406737223183,2.4886072925324
2.3612948138865866,-0.6373065154395561,0.20168272574343638,-1.1730697166233686,0.14281616525737328,-0.5825934861237008,-0.6347609062086451,-0.33265921058949566
1.1017125428991517,-1.3785187379424868,0.6520273326455885,0.0025135781316743266,2.6573753491205254,0.7484955186703826,-0.16025388093466947,1.098753946481812
0.06854377603558777,0.997034025508987,0.4261344524980187,-0.23647744613829735,-0.8781802469778319,-1.9489118411380864,1.535243584193966,0.7292492559223733
-1.0231134859391728,0.7352977673536298,0.6209660640811632,0.14581877389211256,0.07455814921584358,0.5159965945286176,-0.32543467999973713,2.5381377850261604
-1.1953969815262162,-0.9374142072639211,-0.32144956943394226,0.04207774903837379,-1.8466900021964134,-0.54064279827144,1.5509250303811661,-0.509695300403345
1.7184050636172241,0.678842567955496,1.9064421286088031,0.547602933739797,-1.3062463823594566,-0.27590908375198187,-0.8901910627718309,-0.4050576495456797
-0.8649650847718837,0.42058844581646343,1.1239233649939577,-0.675277017591876,1.7240581098678802,-0.2509155557594353,-0.7462249675785939,-0.11454095100431641
1.9571398134188214,0.2854111930773514,-0.1198164711889579,-0.9244160250522686,-0.5649945369833901,-0.8412633016956238,1.0284216935405812,0.49430728120563805
-0.5703039531468345,1.211493424985606,-1.009034732430764,-1.1846177115186267,0.061197574103447505,-0.9487565879637827,-0.49176872225958546,0.6798796601109662
1.038480718152648,-0.39126486554551876,0.8552711784244714,1.7407995899553264,-1.0565589565497453,0.7122355321398787,0.9880765848692583,0.2011964977829488
1.0675106832391303,1.0118820525476004,-1.3774315988850128,0.13232790246413784,-1.0074358663743612,0.8164476528026529,-1.0109115448666461,0.3801712110617445
1.3434790950388698,-0.5666330291695895,-0.3930466919673088,-1.0793564531420727,-0.07603878970652887,1.5730491454586482,-0.47909857409734363,-1.1411918213892542
-1.5182711724006297,0.6174469278660769,-0.5206375301264471,-0.05034788804344508,-0.09062217015085362,-0.23754163918272814,0.5755081876232133,-0.4890553614841812
-0.31936634193970875,-0.5678116233573842,-1.2953073125026942,1.4341179591102906,0.7477786374046014,0.004484664185815425,0.16470997166951104,-0.8484546270526736
2.1090033919841433,1.6817460662885815,0.440920307941452,-0.23799440243508754,-3.658008195051479,0.5183692265921986,-1.8769017932095582,-0.8252046745969559
-0.15344140928415717,-0.9135065749122735,0.15449320506432784,-0.5690951951180873,-0.23922738571196708,0.9063492382122187,1.152999135056179,-0.2603477070788054
-0.16264825523325452,-1.6065787161929501,0.29164387143187714,0.1890107790230359,0.2979838695870073,0.5765621206416447,-2.1870471852936357,0.3590460033303527
0.7141657896256378,-0.4822805518462897,1.801273922479767,-0.15286246018964694,0.8649153769375029,-1.536058403072037,-1.30297217509033,1.609265759722885
-0.3495217295143876,-0.4442063093557341,0.3871457918618999,-1.1578884599534016,-1.0801324357716953,-0.8618963624382058,-0.9435324194071513,-1.3267601746445725
1.7933197143509099,-0.23662847924638117,-1.0146417040005702,-0.017449281901913295,-0.7816988879970177,-0.0891508452202315,-2.2301401532818588,-0.40670852750030767
-0.08565308293190327,2.2046715607944343,2.778128758775037,2.080923841667128,0.5796338604114946,0.07586263100226241,0.4558439337855164,-0.08503227900261602
-1.1774073590226182,2.1431576969368873,-0.9159768883426738,-0.24677828382116745,1.6538933772721898,-0.20200397957812075,0.23896557793980183,1.6086025524718581
0.41078919293962596,0.34517354191228306,0.011224183356650838,0.12946023753613545,-0.401620215088188,0.45838078711377306,0.851759312796135,1.5070947990544883
-0.527196647720747,-1.6896522821878752,-1.0057498073722402,-1.2685745619271935,-1.3456717422014877,-0.44571012514206804,-1.0901350124493754,0.6614551094305555
0.33657886529244774,-0.16103616571590593,-0.5295931470159232,1.0964371738744756,1.2549948851916681,-0.6792176730356131,1.9158935811669562,0.3620322873110181
-0.5918143378793298,0.68781963034734,-1.248144025581756,-0.1748669785795927,0.0657578718642861,-1.342634476716469,0.23788417124750963,-0.5042279388146522
1.494486354418431,-0.00930513319067927,-0.9031305913663759,-0.15292465163009702,1.4897875032693413,-0.3795942864873382,1.4082777947762921,-0.2294880489587551
0.5131525409326271,-1.0540262365384645,-0.9249008074006277,0.988220768781178,0.9407408535470883,0.41722054986210116,0.7251828393115982,0.6972067677592896
-0.1411644917938385,-0.8947063696137807,-0.7137689525368335,0.7006336115641025,0.6360481809467307,0.2496286557177987,-0.5790944223616439,0.09751522836334515
0.568196139815966,-1.0315480106111716,0.8473540675872273,1.127732809952641,-0.38248011675901655,1.0267927832567332,-2.057498892814634,-1.7953193132085277
-0.27541146584375387,0.3002305828798774,-0.2682864897831208,-1.0567628349935514,0.28495596350253016,0.9381163821915757,0.7489962714951709,0.5445472005452026
1.1440320823983476,-1.1696547175770196,-1.9521915160728303,-0.6676362771481995,-0.28160692959402894,1.5700100703986768,3.0740641698168907,-0.1595172054303943
0.16343885180814424,-0.22845576085653088,1.4765645453172118,-0.7601805259319733,1.169370603452258,1.8305188752753583,0.18133235781263612,1.4840477481706118
1.46475348378564,0.03970203385769637,-0.8105773631365568,-1.5220852798507152,0.7048707884005045,-0.7567940024150361,-0.4898545859132848,-0.24610771144366306
0.7305761171136124,-0.1658063489825578,0.5975363816582399,1.7255557337882073,-0.3165289649160845,0.8353609000881516,-0.06019564923265317,-0.4924154662422986
0.6808178665854482,1.571267481056891,1.0649557802695986,-0.12476924475255476,0.6898202630649599,0.6750315772210033,-0.23694384775522478,0.22974426721693816
-0.4215770082754764,2.7720206494258477,-0.7851118107400443,-1.5984935782168372,-1.447438855582707,-0.305469031788589,0.5013018484263612,0.7266892416276666
-0.05171856453680558,-0.42496279559933786,-0.08370487111749772,1.473247622629829,0.8847586318154642,-0.4749753843405667,1.9793312834742172,0.13726144088365358
1.5297519293420874,1.0263649780896886,-0.31006277537590793,0.9619748685607222,0.9323106910996254,1.7484516511710808,0.892244564489185,-0.5071199494933153
0.9150086934209966,-0.5549255306912154,0.43591030474184106,-0.014958313718359439,0.10497374724576124,-0.29649229888881634,0.1452741212465535,0.6873818849494457
1.233885527714014,0.9110809069554241,-0.6401253520654117,-0.6254533539818969,-0.43567866836541574,0.7090909274937705,0.17569884374264322,-0.8017656255097974
0.12797367880506794,1.0932720098438138,-0.20357184858351593,-0.776134690307844,-0.2657367180790509,-1.8465423807274872,-1.6007900742698582,0.08156138402753033
-0.17110553133316553,0.9407562533599844,0.09444501941943226,0.4418508979257369,0.1743724784705444,-0.5347441246626777,0.081920426633373,-1.035929840695434
-0.9038405748999505,-0.2643092905051426,0.5976348660797305,-0.85075203584879,-1.0386193363983354,1.4307396866155047,-0.47413139816245736,0.12215690862108566
-0.7137257997225809,2.3433352189049397,0.20923049107554006,-0.2307875259251721,-0.039936325562075256,-0.09815429539697583,-2.8351202543351346,-0.5244929622909698
0.25951231141794745,-1.341098873186553,2.306516316747502,-0.21210510589611548,0.901764725634327,0.9281606583609386,-0.7127851721813034,-0.950367488865057
0.43582672473400624,0.628090870710001,-0.8568108206604799,1.893667579594028,1.2078757260213158,-0.6968290770980792,-1.1399141144043994,-0.8808137193803082
-0.0877106655480259,0.1566222540609872,0.580480283605066,-1.5761037115771797,0.37819990802779785,1.346111258948546,0.016310665988920663,0.2852682418835652
-0.6675662074029431,0.08458740354858817,-1.052692791282331,0.7403780655957672,-1.5570739731346004,-0.030353448988330867,1.7586795125448595,-2.1420054261671164
-0.2074971018957645,0.23173111052358178,0.9835430476767858,1.1861647445489016,2.3594210295643863,1.1611023668648037,0.0185859582500556,0.6130520165326024
0.770724471323084,-1.250488755997949,2.0017918439956834,-1.0917774879470543,-0.5558426887050127,2.1509325879746406,1.7338982147306856,0.24196026606092177
0.13012877155551525,0.16361890155770517,1.453525881999721,-0.7993665981898388,1.2823223014590401,-0.4130546907429205,1.2223824986331093,0.8998522557417118
0.478694694181485,1.9208543472374255,0.7176832382852996,-1.363879212842442,0.08836798762035086,-0.12102894798023588,-0.43543921851361483,0.12533463341945936
-0.9618832668581764,0.5073900517557504,1.032393259190588,0.07206561177386675,-1.2117104643428347,-1.3403937996824395,-0.24175133750894107,0.4285663217000198
0.24144854226119525,-0.5632271385710038,-1.5067419746738424,-0.9761030929824317,0.5689695226845098,-1.1179251008135391,0.1716964663942884,-1.0335577838217676
0.013122771783551972,-0.44206543233244266,0.6409577600629022,1.1063107118696582,-0.4066991336827161,-0.738028194896325,0.08622111543829486,-0.6971337815398039
-0.7086149178458925,0.9661806689807338,-1.0176758870977807,-1.1740650182113777,0.6643981083679293,-0.9625117410607568,0.6417072840977277,0.0620632675026876
-0.16393883806583187,-0.17643925962573134,-0.7756127477320824,-1.7585028602683557,0.10063409295320846,1.644222512772915,0.5185614415303904,-0.3010684636962849
0.5670210407322889,0.35776126005579256,0.8442534951480529,-0.5861260645950748,-2.2268742609195353,1.6320889554687905,-0.2281238302132072,0.08216633026256401
1.3418056527688982,-1.4967793964997262,0.5831482006409908,-0.3815088991520908,-0.2110850373548173,-0.6294499991456454,0.17416276491999116,-0.09997318248353668
-1.3809242907074877,-2.4836905726576717,-0.5235808977459304,0.3693830368556711,1.298118622357648,-1.523860495861236,-0.8661685746583279,0.037198650688575696
1.2705159434980364,-0.9000654018619767,0.34462116444487106,-2.8482849868559,0.3034673112274705,0.6653714337326773,1.2291113415568335,0.7192097909713716
-1.7214845940204615,-0.236379337675915,-0.46895485837893486,-0.8785256355410298,0.17411600818613335,-0.14113485381215324,0.15474898192158168,-0.056804078235542364
-0.0516257387312031,-0.7945678160360927,-0.48474671947665576,-0.5529806859662824,0.9957478244907065,0.19978346889542697,0.6988440192488968,-0.931306361026991
-0.43580264131880025,-0.42546960970040076,1.0626467959328203,-0.12897043947196069,-0.32935095065619735,-0.9917424974477346,-0.29941361219795365,-0.43736866141691894
-0.47771404332544065,0.3588091536018764,0.46135067093563925,1.1071700489248555,1.7593203114627505,-0.6269499531143428,1.9473757668929614,1.212854390568465
-0.9190344784863225,0.07032849673756833,0.32002598677612015,-0.9320430424803373,0.17108474724903777,-1.5197325934500736,-0.02873203361830859,1.8018291956175978
-0.11469538120896236,1.2104507556186752,-0.3408838416792914,-1.005582761869242,-0.4710726419249667,0.8683765181748488,-1.7026928238164762,0.663247018244527
0.2654830830627153,-0.5188123487714282,0.013784397438558705,-1.4348823389115648,0.5814991364286493,-0.5366293690413966,-0.5180953482234245,-0.773424923175856
-1.9671868230611558,-0.29725362448647885,-0.9042142240219503,-0.8323303008663514,1.1304291011737175,-1.1299022709569966,0.9477277306347375,0.6606728414243545
0.5765506099110111,1.4597369977460035,-0.1850205392654125,3.0855119593352702,2.0297081350765054,-0.7461087881374459,0.4345143793050599,-1.9647502955436849
1.1512482467185683,0.07947553564771012,-1.0386667377501357,-0.2931999698593057,-0.3646256328429653,-1.0931246200219276,0.4460720650357225,-1.618522362129174
-2.655071560338632,-0.12507398025776362,0.015189987835664531,-1.2645962037157237,-1.1498631508032777,-1.1495135801992085,-0.6610235718137253,-0.9590795782250424
0.8804300421299556,0.4167403135905152,-0.3220861672612661,0.1256677020653019,0.3943182094612436,-1.0679355156309174,0.49284527374752607,0.22726030094795496
-1.2120677252669436,1.3159201343558358,0.6066639694435091,0.3289028653863642,-1.577596485227921,-0.20694672621667312,-0.6219081775692769,0.8613969381383679
1.8368363004313657,-1.4878201123832053,-0.9761417201831397,-0.9236781644327539,-1.37092660131604,-1.8676489342261073,0.8166172216229213,-0.12048596103751089
0.07182370879316267,-1.3493724128674487,0.12194465568143034,0.588938664495856,0.7223786528286751,1.3034237984303032,-1.4145249535045026,0.03339917655210747
-0.7899870046502379,-0.5528201178265948,-0.3058813999986831,0.3886365970573055,0.9198966670343068,2.138911714369277,-0.8196348614368314,1.5054983547580842
-0.05806445889083083,0.7304515151145551,0.8807243789294263,-0.010373914390990793,0.9364308724141363,-2.2118804163872148,0.3676013052985777,-0.21640922296329465
0.7664692314592785,-1.0237429473717594,-2.125524660497729,0.4665228559535251,1.1680660429991303,0.47708882843945666,2.4419452000861965,1.4620274497114456
-0.38548165505733656,1.411761188616067,-0.42569612606944796,-0.7286521041069511,-0.09289050306947716,-1.2130563388063158,-0.7149114402660616,0.664377027925956
-1.12425343062644,-0.18828376085717619,-0.3423205768950738,-1.108386667269399,-1.6955690527205305,-0.44900826876925815,0.43501064702325865,-0.31612740351166835
1.289249820652005,1.0622062350935149,0.16488299602969453,2.135433431984591,0.020684847725034726,1.2801339182536702,1.3184379680420233,0.2294889917673923
-1.472425669457562,-2.489721191508989,-0.9681728234206697,-0.44311727844803483,0.18391446145366555,-1.7827203771976368,0.19639348020698716,0.10350920841464711
-2.1323043203267202,-1.054280308174353,0.03393641816714196,0.6903616221526078,0.913073771828328,-1.2753745120474844,-0.10340698696562241,0.6860658352489254
-0.37547543693959123,0.09761340699764288,0.7008754271527853,2.278096832023711,0.137590392065776,1.2756896281019408,0.24255077272458408,0.7295525125062311
1.1546950182587814,-0.566427746218108,-1.1017191388071987,0.6399834958034413,-0.6036540559830678,1.0537720185035437,-2.1214097703774546,-1.0007108124106827
0.2695884674604689,-0.7448755207945513,-0.8406350767413797,0.2898279197570173,1.9563508515637975,1.2610359557398216,1.444368405440274,0.524615458249528
1.4770740011517751,-0.4520040351076291,1.62536621022807,-0.10779069957006476,0.608021065099074,-0.12113912153012282,-0.5141178747967231,0.3209238770190153
-0.155866928596707,0.3383979690879917,-0.38675542989369455,-0.8020691766086033,0.4102274444584383,0.9000779980594056,0.8833631909322817,-1.5848017695415249
-2.7806312942065583,1.3194648223676422,1.9482484249217322,0.275742587991615,1.975500252296907,-1.8972542527495433,-1.0867478377588518,1.4805251609757901
1.2169897145742805,1.2914314663708244,0.5015649657146238,0.4589760981968341,0.23733828080190886,0.78497487577722,-0.5793781047052065,1.2791583591982576
0.1807237722458889,0.6674167986373981,1.2455024002336692,-1.5525636674586059,0.431140791651868,-0.737508036258147,0.4518515231809098,3.082957656870094
-0.22841017026592095,1.1708529863123176,-0.5096029537912219,-1.5257028964314747,-1.1192340584348022,-0.7171813216202362,-1.7426687912296916,-0.02399659171443345
-1.3977173065152262,-1.6872026509478948,-1.095324764950606,-0.5635903771992726,0.09877752732849945,-1.0438602710626346,0.3970627218472843,0.07184186592053018
-2.6139685851162384,0.4170447599346482,0.9515613507062666,0.002218881511722291,1.1232111348005773,1.532698393556688,1.2128354889779125,-1.2549668862095915
-0.52357512772358,2.0454982101554613,1.4223627642259344,-0.46693436076131073,0.0057727330658115614,0.5243029063176545,-1.4220865061708123,0.9149743008146325
-0.42023077925857605,1.2205367329764618,-2.1054523882123215,0.5590681213643018,0.24540216002605686,-1.6083765097454712,-0.9589822997201786,0.395840890055203
-1.7155199349896255,0.4854645073761007,0.38928415979782294,1.4210869727404956,0.4241968854858931,-1.3623206775717789,0.3897556296756523,0.14458378745477007
0.42109976734284227,-0.15227689732859107,1.4238991054867534,0.24192781236287797,0.5594078836578525,-0.9224333845108629,-1.0566120177883558,-0.023354340907222368
-0.9956321118307391,-0.2927859253962732,0.7513175592153585,1.3578741435713146,0.64641689071746,-0.8686673988276626,0.5047364340209486,-1.9496831206490657
2.1693564303022757,0.7947735942476375,-0.16588188244262864,-0.1722709635314646,-0.3498861094913182,-0.07941023504576608,0.3331833529232255,-1.0002351513662777
-0.02319328383373519,1.0607761022097781,-1.0869638953958654,0.548214715455522,1.0252622319853546,1.5835190594826327,2.814182870517191,0.11847704813683087
0.016591354287035304,0.023797485392419767,0.27580323632479714,0.5687839552840896,-1.040820829423272,-0.5789677079555149,-2.382772348926028,0.43710130223170385
0.49747109999225686,-1.740322905011295,0.350944580147902,-0.4317401690451432,-1.1973579689971878,-0.11814390981897102,0.24671809077998635,-0.03705536172823178
1.038788394965073,-0.9670363279232295,1.9482856825935455,-1.8360251523662052,0.08558988930979912,-1.0143094903046168,0.17422670139898772,-0.6559839318914648
0.3110350895049295,-0.4105985515091785,0.13277340475568658,-0.6273302225680508,-1.5201659350595773,0.04663163869345047,-0.8494252741234342,0.16639656542099981
0.7160602711314243,-1.8395371144942836,0.295193117307793,-0.07640824871569923,0.2469279207636361,1.1510458533357288,-0.4509689521703409,0.09335094716319219
-0.02130749230956496,0.8714938032846294,0.28337806397504156,-1.6077719506480481,-1.0720241817672937,-0.27484204035003057,-0.921172401567564,-2.524556457342204
-1.0203984093912164,0.015209220376353654,1.213899012855011,-0.444060061908905,0.025136550369585803,-0.6155654849348694,0.9757896700806831,-0.15276559462347017
-0.7130716793486586,-0.07192807547727746,-0.2611886363284352,-0.03343864349695976,-0.04032213385970206,2.2206097443484585,-0.8619386562210731,0.035176714688459176
1.4323092017320906,1.9537521432726153,0.12861200260750374,-0.6962047893723792,1.0017267403208472,-0.18373861453684862,0.5476896671400465,0.6043838967215215
-0.7281178525350215,1.1984228215861001,1.3038752119713573,0.824579138459506,0.5300528819667375,0.939700713925668,0.49697289563801933,-0.09257810599788042
-0.5113716979557078,0.6231454588038501,-0.926438281786593,-0.22798013679550702,-0.19538689788544616,0.6295857382480224,-0.3167452027183594,-0.17341198277932132
1.2577745985164068,0.10472203883496463,0.3538358294867616,-0.39695474938379177,0.3754776412087145,-0.6369877613588554,-0.4577849795526096,-0.059308274692037186
1.0008457054461004,1.0011992831711194,-1.0281478225073288,-0.5163547876874609,-0.4979186861303717,-0.8377068650300289,0.4936779325077218,-1.195026492616206
1.6154101089046442,-0.7956811123394576,0.7692703489293381,-0.21316998318986505,1.29073638649993,1.7134786141317921,-0.37029704683361603,1.9907405948187067
-1.5742036675604467,-0.36194277449463286,0.01746144213574322,-0.9253423679836053,0.1943846504835534,-0.7029218140950881,0.14071255300738514,-1.0156707829800402
-0.4739140480897301,-0.4097094850023029,0.5062682578721355,0.2383142378680662,-0.8473613308013627,0.6423678057870044,-1.0367266798960655,-2.782572016041825
0.6596770203385015,-0.26398123601865453,-0.1557476207379577,0.6864114777303468,0.42482888439299543,-0.2506009159793703,-0.9161481200193669,1.0816668153633544
0.04601175202183894,-0.13879599178155053,-0.9454897789804602,0.9048582569350729,-0.08637586906705978,-1.1981638427122718,0.609891639024209,-0.229397464789673
-0.7269781871276811,0.41250972107934375,1.5355410409901964,-0.39935817224700726,-1.65021018373562,0.10432564637065024,0.8533476011429617,0.24606043921331358
1.125202288193461,0.18475166072094446,-0.6502527178335108,0.005484484004576638,1.4980842249162662,-0.4561006726262674,0.5624426480788233,0.2778737023426037
-0.4683420322766676,2.020594962551324,0.5169691974617686,0.9706469664394476,0.5322324981779786,0.21592157359840958,-0.722233989714093,0.9851586394147036
2.239267804147986,0.3271886387375882,-0.7206047492297177,0.8119444696045458,0.3254198461635483,-0.7329311726875151,1.1630142413735443,0.4479864369219343
0.40401095136228127,0.8085145678805958,-0.2080607241984195,-0.5791639935079861,1.6849958105269172,-0.7295505447271754,-1.4151868141092852,-0.42517147326660987
0.5211541941706543,1.3937656393227034,-0.26887783952029515,-0.7642936826492742,-0.4663363876897439,1.4022383518527881,3.1078395112393897,-2.1292354827900297
1.524079826381267,-0.7254492792808042,-0.18346711787292244,-1.784272438729504,-0.9129503722938135,-2.174988157952682,-0.7772662525723384,0.447675052432547
-1.263534438988342,0.5735882539655782,-1.3165127612433205,0.44563124014746386,1.1020250972559127,-0.09570381866052238,-1.8433062225363304,-0.5114140902422528
1.3083343044652407,-1.1692626844264413,-0.6609392948071845,-0.6842508077063683,0.05389193107807664,0.6981492950145068,-0.9532601770436971,0.033936031405517646
0.22244965366152422,0.11733135073608375,1.099920380260156,-0.3564835355692991,2.1086720440236073,2.2543939076222212,0.12728563983964966,-1.0515544805304367
0.3450351180602299,-0.7034700139580459,0.5680023347475118,-1.2526962588660608,0.11865688766430811,-0.9986286041935678,2.0999965467266066,1.8666257209345785
-0.7046524836439119,-1.402545859038821,-0.41563236303477813,1.1596203885504635,0.8757029174071124,-0.47617383283695613,-1.6304407031770078,-0.04204431928988592
0.9799007167494126,-0.6710207812051606,-2.109583568873006,1.182065798527965,1.0643332951548319,-0.08917013698842294,-1.2787171980191598,0.15276190040179224
0.17393532665260295,-0.8893852051001547,1.3920947479448373,0.26217258962473483,0.06842698003505589,1.1696761405412839,0.4903163232509779,2.3110831721841367
0.14135071761819296,-0.4579067189735185,0.2724634239287713,-1.1680618142381953,-0.19137477920480703,1.0181154828703656,0.9930991040941262,-0.7245384757451512
0.418890004156883,1.5561797243874005,0.10181741602835014,-0.6697340487287017,0.1295548614952702,0.001586656886798673,0.1934819347314456,-0.44710549338382133
0.09019268445062831,0.41737614561194025,-0.04740211921784284,-1.0890212210873433,0.24989736562583353,0.24854478198839836,0.21742426985914076,-0.5890861122632115
0.14647086062975048,1.2663164362136603,0.5313444857596631,0.8573557245669945,-0.0716584080513122,0.4758451647534975,-0.26946659482109364,0.4731376429279123
0.12242563323090332,0.48256395279553205,-1.447592292297394,-0.5939800386930628,0.16631186558368527,-0.6595823084402606,-0.4239616857375272,-0.33769098401943765
-1.5474526871293395,-0.1737231246782634,-0.6800216883824912,-1.9344982714713275,1.9288840476661633,-0.11137479300449334,0.51097506981754,1.336616590388293
0.4285060593590405,-1.8562399649170562,-0.07779714510239998,0.40377112270354637,2.4650732866255036,-0.8436157784521223,-1.2509334357033333,0.22659642018693146
0.2324620281551866,0.7246161113037367,-0.8629869661384288,1.7935197886296064,0.35593334199238985,1.1679856223865777,-1.2370128816255384,-1.0981633484129685
-0.4913035547498858,0.6716523142602925,0.34385880289098286,-0.7494745154192275,0.8587840774356593,2.1719133506410895,1.6498344751860803,0.4562389123074148
-0.4809157227450537,-1.447489453748946,-0.7811748413551062,-1.665797775480683,1.1248008932300606,-1.7545654527169485,-0.6528311349499618,1.8904390630265948
0.5495763985912542,1.132854936317351,0.07342854384569743,1.4361072953888891,-2.4251439173816465,-0.5354635042862144,0.28015280138788023,0.8719163444408485
-0.05640619097708738,-0.30134167588908956,-0.9989007926523783,0.562879321326761,-0.6829227418285828,-0.8340974348116867,0.8448274306362215,1.7513297158048688
0.7847303623218974,0.34060668061297095,-0.34442908545502604,-1.0622706542578104,0.031026886494661843,0.010919489394766868,-0.2241089306954309,1.9762287950776707
-1.1270130170201087,0.8817771968453001,2.143022862165584,1.9011229106081615,0.38586388761009394,0.09864056376523515,0.7489307401989292,0.4004656267659369
-0.7977004133220389,-0.6014498960528281,-0.7543693142330112,0.852027976962846,0.503209466890734,2.292296306117411,0.2461258882936856,1.3648765924300714
0.20041448392146313,-0.6170859260305543,-0.8752764534724224,-0.5718331641716639,-0.21337311526348557,0.20406945838870663,-0.8297683511050445,-1.0782911260471257
-1.0256895264309946,-0.2940095354235739,0.10972691669632816,-1.4787749846926248,0.2788521692170175,1.3373616669912023,-0.01634994539144104,-1.1080039059509708
0.629618030862598,0.8308338007262513,1.4136315301541194,0.8113806711963317,0.2763616643223898,-0.4140944814855498,1.6714222660233287,-0.3804091344051626
0.7098114842906331,0.8424374804782501,-1.3113741026702426,0.1354599334624136,0.7103865347730335,-0.8612390127214001,-1.577676691779719,-0.6088357565145011
-1.9873528128999784,0.23477166581027276,0.0066923361707001425,0.14054625416809513,-0.47766017506377906,-1.283596945565795,-0.8012765695302823,0.035206795243916664
0.14536203701764183,1.2702215089284603,0.41926199201040665,-0.7922334441380724,0.2647886218287539,-0.07278947702626751,-1.842663140452124,-0.9359637089078875
0.39080935770198694,1.859661147727246,-0.12688568754377957,-0.5158918636821619,0.3679933216240432,-0.6449057084770969,1.6064870599971046,1.4790959119684588
1.0373540771285337,-0.9558218036739631,0.31058608170126467,0.31471092002003787,0.1718412628444815,-0.196281845658609,0.10433622498243689,1.3430158381483501
-1.054376977069294,1.1822191184480386,1.2512225772627863,-0.4905382930158086,1.2241785199093416,-0.3789609075894348,0.8039146463524952,0.7913033846419333
-0.5695707093904095,-0.3332122931631275,0.9961980308060806,-0.9333676581362136,-1.1602386417609885,-0.519315132036185,2.7284381069861556,-1.393908190052993
-0.1425203344230594,1.2937354380658177,-1.8017454651866496,0.5402902142964855,-1.0361723601040649,-1.193114035651138,1.727931297657908,2.1958167591288666
-1.150972939375826,-0.38763069396509353,-0.6931543349409965,0.5818453631178694,0.06748624352017285,1.9195685520699441,-1.5118654700157326,-0.3048545436933511
0.1528015752669057,0.24673570027821937,-0.26470809215790037,-0.4690466526069175,-0.8184410137584495,-0.04164704220169745,-1.0359287383518245,1.7074241463362887
0.3038356341804099,-1.419854679367621,-0.4402125045660386,-0.44087744398104034,0.37211984721833613,0.8532905273529744,-1.6613223581697785,1.8548514847149893
0.9345818717127602,-1.004220929145987,1.430918036139058,0.39144216699260076,1.3562298426530233,0.15914967386524118,-1.1037770555089539,0.46202377050408616
1.5520804943490596,-1.3446458052066432,2.615368992300644,1.3017443972403053,-0.8658947721961163,0.6120911877529315,0.6784630981204126,2.6171005251811046
-0.38209123482366275,-1.2271606419453607,-1.3636883994440185,0.04475338000846812,0.6501020151718985,0.2575419725761895,-0.03783868400194685,0.34465502076782406
1.0679990588408863,0.6402943253822936,0.021977102275145054,-1.78188269821013,-0.37633101325827667,0.5542266644595771,-0.07625571245111104,-0.8377687748060403
0.28672935509753894,-1.386722506989811,-1.6096278428902757,-0.7808506639687073,-0.2740551488581505,-0.09563307826144532,-2.4560257653825324,1.280539072840907
-1.280068690585948,-0.3083443106632087,0.015717228565321224,-0.4756572197087079,-1.0424368924991705,0.1207094055393785,0.857109144330602,0.9954407318391579
0.16138486143974504,1.9245195877305499,1.361204713932583,-0.17890079062970257,1.4035642134504909,-0.7453401169733452,0.48700059465807394,-0.5385872551407661
0.5196120057087409,0.49792440619866596,-0.23706985894546853,1.8085863730087692,0.13263597909626054,0.8697809955042851,-0.21036170164576004,0.04311066166222665
-0.24485925975022946,0.3397834224834506,0.41187624920378324,0.7005510215950291,1.2396473486297366,0.5268555883357041,0.2180530746465047,0.396107748868681
0.3868983869507295,1.1890388060255659,1.2417265574246057,0.3830050796869331,0.41891532792517183,-0.6371035163581467,-0.471078478027005,-0.04269265572226448
0.001732112611778113,-0.23981643944821152,-0.03753264242233391,0.47425692680581616,1.6212975462186583,-0.9214280483534086,-1.1885570737099385,0.8055768665978709
1.1405719180276217,0.21573835801385358,0.25613411392588176,1.204377696839231,1.3645922398503152,1.5513750163657505,0.9931275646973611,-2.3049639334792857
-0.7179423730643892,-0.7421902603436021,-0.041218505321857016,-0.14187914542393887,-0.7624730524708657,0.3998827290920751,-1.5188559017873258,0.27045142030893754
-0.9630188468217095,0.21210108868219504,0.3732541022470719,-0.6847238615052559,0.9858677618222842,0.1903133005449945,-1.551246000831212,-1.1870866549595158
0.9678253689934171,-0.2756463308551851,-0.3050108164650962,1.6393307601902813,-0.4738904975197758,-0.15930781551533074,-1.283593464650612,-0.28886016394586594
-0.04699443078694855,-1.3330858637029332,-1.7977539999417522,-0.05350076069962493,-0.09010923159261505,-0.10485261503327703,1.028681474049389,-0.7795744526759117
0.33789822748056886,1.7416958575037647,0.22662374558625087,-0.15945103034554223,0.1823231678047441,0.4857030458772102,-1.252001456970509,-1.8403160832774021
-0.6439620739057251,0.3443550570036293,-0.7567998254693574,-1.8332761237992818,-0.7789210041557988,-1.0948158087820525,-0.04248428954304296,-0.3766551236278399
-1.507253623837978,-0.5068391278822035,-1.3443444871652417,0.10239818025792702,-0.3676284720523977,0.42065249657595666,1.32269599555159,0.24661014149774957
-0.499606000131439,0.7287335180237142,0.1288343429899843,-0.7023273199518203,-1.6484388019136187,-1.2021570807191395,1.5252227165948737,0.6304942335329771
-0.23596984737706717,0.7589386306541525,-0.35730860452432006,-1.359697421887416,-0.9013640510690151,0.7195097460657648,-0.7161166156628135,-0.7008559819946839
0.5658027607921963,1.235769533368194,1.7099814358024235,0.4291324042445785,0.7652550252703789,-0.46346389735466226,0.8729436196362179,-0.20782565234137249
0.5580032450485798,1.3217858603630037,0.3093724235672084,0.1798146087964077,-0.24014633390636742,-1.6025706430156976,0.23955449796018913,2.4875054951033033
-0.21439123782433356,-0.9474916725187034,-0.5380542650052157,2.0105804132919687,0.6295434602114729,0.5237487356853814,-0.11557058381553362,2.4415582183737135
0.552684996603986,1.6167374448558374,-0.47121092866087383,0.7138030196218206,-0.02658918311046922,1.4128157090019913,1.3568669232848174,-1.188006480038759
0.7956824550213561,-0.02143125876791276,1.9139078093256046,-1.331940297743273,-0.04292796833123,-0.37565844007739674,-1.3415439385133496,-1.200115272624251
-0.7310682200483438,-0.3948605491189278,0.6462581608604712,0.3852907784487288,0.5930363308017994,-0.022313340871071296,0.10810551858584203,0.09332924027622334
0.5368625806944426,-0.21831135089313905,0.4211805283409026,0.4543118415122688,-0.056200775701432316,-0.4690326419095942,-0.6867709259165748,-0.3095498554038904
-0.22003182617330108,-0.16863447973683834,-0.4958860327605296,0.1056610702160595,-0.9372900056459577,0.9317587641317663,0.09734322488534153,0.754893218400404
1.035033451415875,-1.1271095756708818,1.0721191948686228,-1.311058135808851,0.0976608356183335,1.1563610257981176,-0.3948392766337911,1.0209352280282342
-0.9436792708617173,0.07840402687948025,0.006379878848957721,0.3496814314681387,0.9509346798485139,-2.0449630599613164,1.9731282557793108,-0.3961081883813476
-0.995172169661133,1.1795848264439257,-0.9721598737204682,-0.605067188678439,-0.1810365555704849,0.26844705115323664,-0.31716096457877885,0.6620732371598459
-1.2053793633245493,-1.0562843874467431,-0.021453195135207912,-0.9043972952286318,0.7860603925967382,-2.345947803808297,-1.2932064805653594,-0.17809059897328613
-0.43647784013087154,-1.007054778625798,0.2542191711453873,2.6566206239633563,0.6133588439421641,2.3199242713481616,-0.761349177622317,2.0816785597914302
-1.124074333680742,-0.9367236957808871,-0.9384220145289066,-1.9362313914058482,-0.03476746504308998,1.1142177336383672,0.5190836340333618,-0.9874129647044207
-0.9534619452557201,0.36261064895676093,1.9425123265789845,-0.12759886933367087,-0.560414422477853,-0.5826220736328814,-0.5350794743116388,-0.12151041434304503
-0.42912529635198,0.5607133256116558,-0.17635734373772713,0.07912222067996674,0.6435350192700459,0.03817191365571167,0.6175383741731887,0.1813665080136968
-1.0349905924677059,-0.2907613440149486,-0.2255457053044073,0.4527990384246406,-0.12514478048796673,-0.18150289596106087,-0.5798804172421148,-0.35448486821649294
0.25225429114724895,-0.1653243183346585,-2.9699320434249947,2.090878970738497,-0.14547036269843844,-0.12536552595248143,0.9946230891048,1.388657077244299
0.7963940419799812,-1.1855820288818952,-0.4954967970480458,-0.3012375716722208,-0.421445078823204,-0.32480926844710534,1.0017530320256125,0.035638902577311234
-0.11833903150046762,-0.4725656832347533,0.009453941675377409,0.9837419069847265,-1.0991276474923497,-0.8638715855319635,0.6641675984378004,0.36638087672597885
1.027301514744974,-0.1450294524522881,-0.4820476668014204,0.2376951314305971,0.1217035867363355,-0.6466910923152097,-0.30209331641162934,-1.8897894142193943
-0.7702180087134386,0.7342942615569579,-1.0204217374025757,0.22900126567612353,0.20494717908240162,-1.095256006021431,1.004558260435008,-1.0822757139340295
-0.43541618958075257,-1.1204378806256263,-1.6075478110894286,0.8444963210068059,0.6045779064099435,1.4020649970424426,0.7615013927206751,-0.462719558851989
1.3082692569932595,-0.297614577424072,-1.1251524217117352,-0.5811827032623897,-0.38609268231652116,-1.5072035152053476,-0.6486474660989219,-1.0390912005478332
0.4131668296002277,1.6307580119285432,-0.012693827009786907,-1.6704796131071704,0.3899494066961627,2.6813111994408496,0.0932990134423449,0.16516219901704796
-0.11328690938072952,-0.5999937455866486,-0.49064059721734815,-1.0283282407859775,1.0216187448483418,1.5168628677952838,0.19231451035416375,1.0315930211374733
-0.8416593593561403,-1.0234344396915769,-2.6075787595318456,-0.6904242222099808,-1.9599890735559045,0.27115692019856913,-1.0846523222344113,0.9409145897085139
0.13841299913765612,0.09184317300564734,0.0552622209419413,0.2305978555120684,-0.9101371160428521,-0.39151024042052146,-1.179286032735812,-0.050305440316016706
0.963718440424569,-1.9148715516060684,-1.1102603950736893,-0.2103024852892008,0.13604804973119988,1.1485867460707937,1.3314328841158232,1.281927584984899
-0.8735928880198466,-0.3477253531370728,-0.7189564683730978,-1.3375860485583329,2.5761155529434987,-0.3868635701210709,0.9199924554464098,-1.5294361832664018
-0.13247245508707162,-0.17771348670665424,0.46867654268751513,-0.3789629926347518,2.02620779202321,-0.42303306697562704,-1.6135540221598743,0.7328735871816076
1.395849796727618,0.6423885495800026,1.4560722666127497,-0.5634554127058926,-0.5109224205924938,0.9321652266361599,-0.9453538825610568,-1.452065477197104
1.5710904942146828,-0.5182691200098659,0.41870727720338646,-1.5737791622934052,-0.8107336382751914,-1.8378127691693043,0.2920844292924331,0.20231547705533645
1.4176320236408466,-0.4072261582980106,-0.7215530563200985,0.9338399661255348,-0.3580098805089485,0.16116636951484728,-0.41007337954610884,-1.8099110579784135
-0.5153202398309666,0.29513239068468955,0.16781569834872853,-0.5492202011979989,-0.17217694314119733,-0.3403455481450053,1.061799752880606,-0.972466929173131
-0.25980607026780134,-2.06681343361853,-0.11371822572876898,1.7173868736026512,1.9877779299221505,-0.46274567245154985,-1.2633203815920921,0.13140280767420764
-0.5043530850852124,1.1026527354946347,-0.2784896771960371,-0.03859499688350166,-0.9644239385676592,-0.6649250463747182,0.619199460449134,-1.5168027308133882
-0.8437940534063632,0.4577612005829801,1.2516086033494724,-0.4482010583447837,-0.26193992347062817,-0.21924036071346498,1.2835995623477547,0.22476969204158967
0.026180289892947,-1.2510062986726145,-0.6218104970835426,-0.2918860299901956,0.7532953031944599,-1.9428024200324812,-0.4308021837352027,-0.5961701688244494
-0.5833361575087462,1.070521073136676,-0.16300503864861668,-1.6493537121049027,1.342954131741452,0.013345640360506115,1.5794831536181406,-0.10406150337923026
-0.06938400853283713,-0.18355887580536065,-2.202307745491436,-0.17939123281062738,-0.4731568588212176,1.546608697636135,1.0099835247000954,1.4547157253320517
0.7200914854411411,1.1031985818458725,0.8915951501431753,-0.5253356848674402,-0.3650442027070175,-1.6671233333020985,2.085521230735047,0.39526029892027326
-0.4187806086556324,-0.9050635542990165,-0.02546902014017093,0.2852540394088818,-0.4617937345603629,0.24824339814509483,-1.1774958701767457,-0.0404153283961303
0.7248131867943401,0.6002559072736928,-1.0028238602371526,0.32397508425763416,0.5120400304390106,-0.4314511179542254,2.090153849189175,0.7277035040913501
-0.9529543408643866,1.59607829410095,-0.12599529680469204,-0.015808670357579536,1.4626629017499904,0.9993295536330882,-1.8949633108341717,0.44735441033083756
0.9965094348447344,3.4427785495369516,0.3419199080207266,-0.16010537812268835,0.4869279873969709,1.296542156473789,-1.3294499626762764,-0.1361557625242162
-0.12220886182597149,0.6098509588016271,-0.1642356741620445,-0.9394644302590357,1.2421113207355674,0.03576841930223111,-1.4028734835927308,-0.3631590084330699
1.1546687127766697,-0.18913357394303587,-0.21007759528862305,1.0242455533924004,0.32836803928290187,-0.8073208627871905,-1.3758410270435033,1.8840622195964594
-0.07281123600348559,0.43885835536191997,1.670001924926497,-0.7447122451641118,-0.18315126665227874,0.711101232586597,2.0870498524443732,0.5100890754106434
-1.2196589461756242,-0.784026239137502,-0.7535584952498685,0.8556290193492845,1.7171329235625532,0.08102653769536343,-0.42961315383405324,0.08154556595461968
-0.49658936969256334,-1.513807189087923,-1.0539758272917354,-0.6433342140497385,0.0641400780951233,-0.7307640480107523,0.41925083118924933,-0.13156731203073282
1.1416473854437477,-0.8579512722342693,-0.8065072008040083,2.966059671525601,0.48876604477578317,0.6916573741553895,1.369743656579207,-1.0932174463436697
-0.6687717086569998,1.201109985390846,0.9961680226282499,0.019744884606364747,-0.0872473309770457,-0.8299725205072079,1.8851424870591496,0.3445811223152543
0.7918182407445833,-0.33867776961328433,-0.05584956096274842,-0.6297238727496123,-2.478841658166375,1.7044798212911527,-0.04160472356019279,-0.6145701580579349
0.5986639778348071,-1.3448827187057009,1.162960663473392,0.9318548437587829,-0.9262739028173452,0.228767548077234,-0.9165717627206333,0.6162285845883426
0.23495721067441444,-0.7908173318812868,0.011016612131169425,0.22419598573761954,0.11429133700788766,-1.514168555472071,0.5417423811015584,-0.029313870032274075
-0.18822607815195758,0.695618609507977,-0.826169268380333,-0.3396087575163211,0.8645189648604273,0.8630180940676098,-0.33584671584293485,1.6643406540127685
-2.100976385889556,0.7894233404921812,-0.40780021253690035,-1.7932233515656093,-1.1933441699155936,0.9933938061930766,-0.28367787406882694,1.0712442651083005
-0.798868561626814,0.019974993146306096,1.018173872515529,1.0898230976530767,-0.7066074198168061,0.43786403244859595,-0.48888424776178097,0.702023050876141
1.0425004212506017,-0.9565732742952328,-0.26568014751106317,-0.6707092942095049,-2.740318292337928,-0.02878514730004056,-0.24334360727963614,-1.3384548084036607
0.7395080274755551,1.0834551775077537,1.2289867224172237,1.737588415242389,-0.6343542749536262,-1.161847511954928,-1.2593183869473152,-1.8201897753138474
1.3185956006303345,0.7196715708893648,2.62400379261651,-0.48600970682223354,0.8640283066719853,1.5632225480638668,0.4355405538575298,0.8642918974603554
0.9995743626702721,0.40626497867575495,1.2495531863753273,0.29755796902295856,1.0366555434944742,-1.0423460760223924,1.3345393629769502,1.200250744394118
0.4379627376334579,1.5895221261236752,-0.7371703779754375,1.1533923906911598,0.7169354956635503,0.3425046554971152,0.11502285741682647,0.1118929550131584
0.35759049336898197,-0.27302337939399945,0.9317524381419999,-0.6631667380238856,1.6090211411691597,-0.5844505089889527,0.23942140849088908,-2.2915986474346197
1.2525008909070432,0.16346180115588202,-0.016193442949628427,-0.9920361909131197,1.4601795121335042,-0.8887664493772366,-0.5054716428608694,-1.244397161637996
0.7030222020623365,0.1501832057065907,-2.1153871275588383,1.327962720362394,-0.4746880613438007,-1.7678138873987697,0.2795100925877558,-0.6426586737500685
-1.4207977643247895,1.6634783884509998,-2.380680933198032,0.4148620986067601,0.7527340248659784,-0.29567884286965834,-0.49878101857836155,1.2877302159848216
-0.5990616966871123,-0.6224911455804462,0.9508040767911164,0.5420365578511281,1.3038207899429457,-1.1657674855596676,-0.5699398346194029,-0.36864554969660646
0.4850290738819795,-0.6511084684785376,1.132750569558389,-0.9714846691458217,-0.06836209836816148,0.6812748027437584,0.9722812240897579,0.892877214131192
1.715084873666877,0.3125724546648615,0.06638877459409014,0.10049782774022734,-0.03524969923980608,0.28641426901980993,-1.4977587034453437,1.4038780748644346
-2.0878915884217744,1.396614202748769,-0.6543339003202053,0.9902589067846389,-0.31468668015045537,2.0312158067284196,-0.5254564147463452,-0.8728638817163404
-0.9905233354434118,0.3951369484359079,0.2718325818371262,-1.3563947297177867,0.43420894358617873,1.6262809284123008,1.0634454713056738,0.8136783029171408
-0.1712157957791964,0.3718796110386512,1.876837101661923,-0.6364503527017703,-0.339740366493945,0.9710108864358019,0.6134997298474215,0.35786006004546045
0.6939642972677033,0.4764383820154582,1.4054144467005887,-1.0165056626070428,0.24978196177390816,0.018747122489554492,0.6562726553789541,-1.543909024304407
-0.21904983069293327,-0.33883356033799317,-0.013143710302002183,0.37163053729140855,0.25773726479547887,-0.17659564871070488,-0.45993902369370737,1.0978055819310162
-0.2576174028374356,0.09861628828634203,-0.14596654264742834,2.1731097786514724,-0.5814309905565108,-1.712263391297226,1.8528571418148605,0.9351992080731767
0.05908888930625854,-0.7146001073021448,2.1760040290326876,-1.413149230954674,0.4703987853112504,0.6421009068112217,-0.35998745564419615,-0.7838069766356693
-1.0285700980181094,-0.7478413210433236,-0.7414132084565677,-1.5117666695188932,0.10418940232160306,-1.1033171178950183,0.9290873860519211,0.44484093276481074
0.10833277088832485,2.1026561504910024,-0.1669477304865693,1.0427470453604233,0.4596821745197298,-0.9984580565381854,1.6070386378781176,-0.3420103255534021
-0.5264284786551506,-0.01969095567491898,-0.1507362659398666,-0.8206214360870996,-0.43112440079995396,-1.338289988414249,0.1343826001946211,-0.5122946220618979
-0.9199415909454555,-0.7222080453538697,-0.9948487545971945,-0.3567046143464278,-1.1451937815896664,-0.7994927514477806,0.8436244546936214,-0.039759518006639565
-0.23122136595182646,1.4787434122243315,0.05089432551626182,-1.9218313625940708,-0.04151574733865788,1.3026566888746034,1.0841154968319129,0.47846642066324696
0.4484261851860557,-0.9926562583299737,-1.394206165101006,0.2851680064015481,-0.8063550970607195,-0.9161140656251036,0.7323152827005244,-0.8306883494171095
-1.030842656883394,1.0236136260329687,0.22866387816055614,-0.6796318717651381,1.2810405622978884,-1.4081427868376055,0.9409471005931442,0.5336668039740994
-1.2129282289536547,-0.7188697466891414,0.179180681450994,-0.68662017935848,-0.15418619497871458,0.8830914565961074,0.9748020098899524,0.6433344556699749
-2.199345803020645,-1.8192095041490448,0.20541737646602226,1.087497120664105,-1.25660785510175,0.27816694996133506,1.1495815194043446,0.7051486580177624
-1.6284366988441823,0.5283884396687704,-0.003333515350844535,0.6284720534850459,-2.9776165766971734,-0.48889453815455436,-0.6943365838756872,0.5268906718537556
-0.18767899681950653,0.040043543687788154,-1.1704294592197682,-0.5387310575105662,-0.15701808000815864,1.5918741683449125,-0.41234991034093665,0.6387777755280726
-0.8082144655461065,1.2974615235249876,-0.31965057358210386,-2.9188221088273996,-0.8993012067922705,1.0765127134510875,0.18654767255366866,0.6785834785132825
-1.004414698360563,1.1244833727589816,3.5938129100927565,1.0658756797929916,0.5583935163271118,-1.8637131526428894,0.5529475929261655,-1.670358212079785
0.4413041340382921,-0.5643674981850014,1.3740301449329086,-0.7844313292935414,1.4866570203940965,2.053366171787563,-0.8222054527581573,0.11847349246740206
-0.6829833463780149,-1.8000674501959117,0.4662467333997273,0.5845865182292088,-0.4312873566693236,1.169695716095023,-1.2990385776095732,-1.0317781975607647
0.6848101984930283,0.09565621851574778,1.1057842055606424,0.8630002443408579,-0.12077913944668073,0.7400121287192705,-1.6929303054521978,-0.7372132869428567
1.5456392434010733,0.22659671136518664,0.062075317469844744,0.403290786663227,-1.5828341211472976,0.7962540455824285,-1.836444969871784,-0.2844329136201567
0.6662880472248996,0.5324482528839369,0.4689549980868874,-0.7256656522938273,-1.394787078171982,0.10489665265596673,0.6155904369721333,-1.065216727520558
-1.6518601562741382,0.481676226062164,-0.14882705947041275,0.4663658823277869,0.5190968191654184,0.8378267969301928,1.3121940947868285,0.962352902003902
-0.1129721366367806,0.6966177897494971,0.5720710322264853,0.2419398886006028,1.5223818446528667,-0.31851370823624464,-1.2533714074449225,-1.5612418069687184
0.22866558704558496,-0.5701655798350569,-0.6696091050691344,-0.7729466654370857,0.09168304127345696,0.538863139710585,-0.6762961688681971,1.3648285368517676
-0.4621825087108823,1.2094075843274417,-0.22673031719158335,0.5353826031518563,-0.08133409725194843,-1.5430122195230669,1.5142190752767184,-1.5677527563972693
2.4523460236212267,1.402150906916028,-1.0608456005135554,-0.7805999449285311,-0.34222337875507364,-0.9855860654919312,1.9256294240754093,0.9824817191082307
-0.2540797812628572,0.386002371321378,-0.5316718785593323,-0.9241295628142011,1.3889865908792185,0.6113058082221797,-0.17054477420466913,1.1294655881789493
1.6911120333423522,0.6827981016778741,-0.7174672104607994,-0.07715421132813459,1.301020483982228,2.3671625643407532,1.8779750440870429,0.24913507388737136
-1.7898736004498779,1.1786891630446323,0.24624235328328262,-1.2936941325462608,-0.9484330689478303,0.23245995025105998,0.6540549166262273,0.5649377121423979
-0.41498340114486443,1.1174048775025693,-0.08957963096147947,-0.2701075815098037,1.8063694642657395,-0.4274185925664536,-0.15998448458714978,-0.9117393517953236
0.32586058125101974,-1.1561481352379737,-1.2663038897932066,-0.1360801543611527,-0.3252988348271609,0.7383567770996171,0.17477352992698503,-0.00482014312320095
-2.2575116335477765,0.3368009605198842,0.5351262326669592,-0.894005754497311,0.9227067639965992,0.8409274391908679,-0.31006751066577426,-0.022485273531029467
0.6317367715978197,-0.8184335717990407,0.5864474719760925,-0.31669578488983546,-0.6620551324543079,1.3215402550994286,-2.152120405079526,1.327867033566348
-0.3376210809634596,-0.014250631399353269,-0.7677462286759094,-1.9205857574142835,-0.5059905779843978,0.28118045599506686,-1.4299959276335912,-0.8554808076541306
0.8588875226720196,-0.9769970842896595,0.6662879808164895,-0.5433917816551314,0.05923137790101683,-0.15877854605309918,0.45954138978371784,-0.8601012437817874
1.3326952128714884,-0.4381839493724551,0.10294355792536622,0.39012536726853686,-1.1017282698382378,-1.1260827984636586,0.6622123407278205,-0.5631977955186102
-0.41262894016689433,-0.9375097088146602,0.9745199681791673,0.37418813671493206,0.2246790624427821,1.6757121953226861,0.6131451151095653,3.9105216923438397
-0.1318673156416304,1.178462383105487,1.0128542030631353,1.185850122505775,-0.276428683814988,0.8538231302309205,-0.1218944807397937,0.663669615648759
-1.160966964022138,0.29659478257640765,1.7242625924051704,-0.01675271987675948,2.3085123546806745,-1.0080136977121754,-1.600605332747002,0.5516873671108057
1.7537817831269518,2.2057642182698203,0.5620777064707317,0.2559903860539021,-0.46790559144598654,0.5856489666921827,0.6933022852670475,0.41837155704003126
-0.32235856991436274,-0.9973824552831694,2.138977247395088,1.7574539188737381,-0.28954315676120296,-0.4395210993115117,1.3223984370531194,0.4312724642967538
-1.9108898590741674,-0.007422290362970683,1.8711662505700046,0.8218099262655679,0.715899811131419,0.8927852608448681,-0.7673380848992828,-0.34883859952745866
0.7126039725336067,-0.010660168596189686,0.47806307216727617,0.8875131550738664,-1.329453735610446,-0.9546061233658923,0.5706266483728548,-1.0938009320295028
-0.42308417466087467,-0.22333873716237257,0.7738514039030708,0.0032557809074241334,1.9527634537031457,1.324060631471926,1.4536417720236565,0.16389762191164453
-0.39424914024282515,-1.3054897881614622,-0.24518611711678606,-2.3154015059256015,0.3424013642755595,-0.3446279767452028,-1.304932145463738,-1.343915433957526
-0.22715950948391916,0.26671190043319093,0.007129393945382583,0.24899270220372557,2.021260126626905,1.5575648401199034,0.5790181727032528,0.43184908496078867
-1.36905156544949,1.718549358943826,-0.333428461742484,1.3807234805013215,-0.4179668880728293,0.29004342001412226,0.6960753566322679,-0.5672538133164241
-0.23057773135984858,1.1322561100465067,-1.093523439256675,0.3659390692258991,-1.0884799234730567,-0.9253492658912748,0.0799809169582871,-0.40190125648654024
-0.8482923275970585,1.2278902757386032,2.7289155005421915,0.21283858424880484,1.244126620760648,0.019832571928731835,0.5207347608042338,0.4161859065657165
-0.2572731021369116,1.3189360647040185,0.0777280068023838,-1.2129146532606552,-0.8379976347645106,-0.754770745806354,-1.7893895048154553,1.0669436043831313
0.26530653413913463,0.05130031156551208,-1.0277370382789064,0.8183631159278045,1.3961376541552748,-3.285970940268262,-0.6484638076520748,-0.8621349044584633
-0.5736172493607005,0.11679216223476058,0.23535856618561107,1.1635892724369037,-0.17134704245691643,1.9304048918719083,0.19954708157733075,0.15283749788157275
-1.7039978334624404,-0.7354570438035347,0.6048453347802774,-0.8469976059589482,-2.068762371957083,0.967310145501563,1.0507304726321327,0.22741567434423235
-0.8458299899160409,0.6712090797198565,-0.5530246036115877,0.6218350796531207,-1.188562642579448,-1.545686399813258,-1.4034259777667615,0.5518294863350329
1.5301028620157144,-0.4575228554847531,0.5885257501949144,0.9438886286425304,0.3052946369444615,0.9808980151157047,0.23254252244477758,1.2691195333978311
-0.9618353512409997,0.676480588906174,-0.8161237753020818,0.023972782558981293,-0.8333621820559307,-0.2935772363882561,-0.46697937467806167,-1.036966364629009
0.5912057173065526,0.9666979346844579,0.2548749005632715,-1.5080430519870238,1.9150493047703787,-1.5939214464026417,-0.6465103619249704,-1.1427190440020272
-0.7880157149282494,-0.1967250797568106,-0.01566051601986451,-1.1971009730814273,2.842538983758721,-0.46601059198836614,-0.8539073857712494,-0.9145602578131903
-0.09697979465914842,0.3861035091949744,0.5877964876877885,0.7076846026664662,-0.48825184263969434,0.6773745323040925,1.1388439394467391,0.6199237851776124
0.36655422105534097,-0.6007287461974604,-0.014025368181736051,-0.5668783426850134,-0.9085346621201201,-1.2966932375706035,-0.30856124672262936,1.073506054923978
-2.647112914718671,-0.8923445504741581,-0.25565478648361717,-0.052955070920904034,1.6282120309385306,0.512796906687276,-1.4556442627047077,0.4302216563610025
0.2052378991717694,-0.09557605311889437,0.44106166913706685,0.45007941219803854,-0.5560822080360976,1.0350175395511947,-1.33732019960667,0.09179224266834496
-0.36366964398488166,0.5955222549106525,1.9465261206122482,1.441668428158597,-0.17347910309219303,0.4809507050464608,1.2441471337448518,1.1388748773658288
0.3105680879752159,0.7947259884642514,-0.5644123706471182,-0.5651154923882552,-0.24074651933288632,-0.0012451924967105323,-0.7486000935441056,-0.1444949127416566
-0.37150273783086385,1.3113013948180543,-0.6508524262901549,-1.9167554233410344,-1.4814669677989647,0.6637360871869914,-2.296308737146545,1.1736691344504118
0.8061085728215562,0.36478355999129736,-0.5070870788486714,-0.20646166684969144,0.6242043303285656,-0.3557162929477399,-0.8457232853178327,0.13323677142414858
-1.9293955019251419,0.18056766954325856,0.4236733493419499,2.981314912641491,1.0177766681826634,-0.2992341418616153,-1.0680630275005836,-0.402431884920248
-0.352102328709003,0.7263177136515483,1.3779677770607612,-0.27937677787808274,-0.1980481062100206,-1.7288936656912237,1.3516177989605163,0.25517253332686346
-0.5025493784603929,1.7769209884860007,-1.0264874456085729,-0.06541674018707708,1.0840703603553774,-1.3414647593794258,-0.11725525128581568,-0.3188158226444333
0.8783507603001968,-0.9176768294616767,0.37026336535338966,0.6159922865790027,1.5375792732008506,-0.020992057653603614,1.9051365004188712,1.7419286664932645
-0.5640158336092742,0.5820835123041448,-0.8140666374235425,-0.5150761009778859,-0.5376608664892957,-1.0060711282988015,-1.1919427203022968,0.08993657524609931
0.369585412209696,-1.0136894776220344,-1.5137334439129002,0.44689512307942736,2.233467630950879,1.4586936274491478,-2.1514553445944196,0.4236967561910313
-0.8843692757966062,-0.7865612429131983,0.33677401936598456,-1.747485850678828,-0.38808778786361076,2.049797019708691,0.5269907759695351,-0.6647870175751504
-0.6758838459971568,1.0722698100275803,0.7152212063995788,0.09018875022057171,1.7291464681825768,-0.5385404109087814,0.3004843938137726,1.4516809327504236
-1.7127338500361038,0.2581831028679578,0.4103072994034791,0.7071975724748103,-0.9982659687213754,2.355072927777727,1.8973002368019962,0.37667895916343647
0.1268748602548723,1.3007000987643842,-0.34361064865762936,0.05035769663662921,0.2840161350197874,0.14074626778219726,-1.7446152263755408,1.1395776843212013
0.24485732838355553,-0.3526724386844552,-0.4699642679319045,0.8326177495982794,-0.743775636243106,0.8985433440406352,-1.2333062775514418,1.3818993132527095
-0.6185433993039002,0.01183554839781128,3.0171759057554572,-0.10085007523539641,1.6828688826851421,0.0062949189688372405,0.45816386553602484,-1.8675283202896393
0.9033889687566408,0.28111972474443625,-1.7232206457989991,0.12336166684331441,-0.5862639352216205,2.2680911968681237,-0.5388880072396692,-0.9114593217135821
0.45399684350556047,0.45541084449179653,-0.19635640432301713,1.8618039233536325,0.08049764202739829,-0.3779259278562627,0.5954659813060045,1.691355151869259
-1.3564174682425456,0.009878341444659681,0.7252130541113768,2.1179093769080914,-0.5552999279398054,1.1220908171723867,-0.30630454823666237,-1.3024836904388983
2.744819947569347,-0.821529541282747,1.5311349284641356,1.5448972159068193,0.15575255746165761,0.5173185247304891,1.2871775282911,1.50504171221378
0.85759718644879,-1.7468750678256346,-1.9014371029591906,-0.7221407988906092,1.420709185576578,1.3471750575400332,-0.13511530729373553,0.20530412529493922
-1.5936363909630302,0.5253924635150633,-0.8043634875967244,-1.2912573566887637,-0.3447134917175986,0.36308847569093217,0.9274239770340804,0.35808812433789955
0.1946900208405626,1.5053356200741195,-0.6454821994396976,-0.17757124332846866,-0.576143131442807,-0.6845918680335745,-0.2990097194803758,0.6290932742346654
-1.2978376266342213,-0.3607172011841502,1.2396538140146343,-0.8547237338148767,0.14670330857536315,-2.280880846514354,-1.7018924798767314,1.118858178338903
1.9437714478908859,-2.8386649052658792,0.281955123756942,-0.127852892354748,-2.0009535338270794,-0.06965020772502452,-0.2812635198272658,1.6772355080853054
1.2991561995776464,0.13859353628472726,0.7465964579857758,-1.0258749972433407,1.2122606735015065,1.2322233981295008,2.0006489084459735,2.121527771933224
0.5201704584630068,-1.1403240549501252,0.38127065477508826,0.007398371577096084,-1.4457978756981233,-0.8737889691601416,-0.14496793579228565,1.6772697897994382
-0.49365043843199075,0.606630719300955,-1.7110880682351446,0.26371795012849164,0.6817324850887629,-1.5085734422094383,0.9998048905269218,0.281739807862085
-0.7473660018674807,-1.2296068623059657,0.5387084527567373,1.150642340606691,-0.8111650398678634,-1.8924350933799026,-1.278312203036469,-0.5193525126504966
0.26083745066487224,-1.3500233134138733,1.1487526528333338,-0.12759071141810965,-0.9887481772783322,0.8257809793101306,1.1890121924962782,-0.27364350817573274
0.5344030619948724,0.9879682218713114,-0.030172473348918417,-0.9506261560010857,0.5518067793027092,1.0132983225962389,0.14194231566998192,-1.0538769967057877
1.102491169373424,1.3222916087573107,0.8626434365075012,-0.34860572795885797,0.44212766969167944,-0.3761963556721499,-0.8595241800176474,-0.06871350544070785
-0.8260877892062894,-2.403432158238768,0.17834456182807124,-0.5812950309512109,-2.686446598199704,0.23944644165247228,-0.41628055908512973,1.0117923914692821
0.11323964586516201,1.5195121334138346,0.7629226788391389,0.16748516733658547,-0.14568476767594446,-0.4330060638144391,1.6639941093543684,0.15121626800538462
-0.6107402013894696,-0.4619443176457344,-1.755021718925994,1.3140549766002045,-0.5939429359067305,-1.72263914883191,-0.5318519992067386,-2.197843803372162
-0.651569556199649,0.48204953476325024,1.0266005252011987,2.306272580533851,0.6643917395858469,-0.6229409675609774,-1.0967718266698612,-1.0041604553793455
-0.5796493959183805,0.10579351283963227,-0.13746319004232213,-0.38445136182097406,-1.4239268743973355,0.396228671207381,-0.9207452020178614,0.9865475992122588
1.7947598373224456,0.944602234744704,-0.5466895181128307,0.3025617045018317,0.6409405815220555,-0.17003868464275124,-0.9197297253039084,-2.351223893886559
1.9583885470570006,-0.1993440765022638,0.7063352342386559,-1.0274894405975354,1.2711189424373286,0.8951285352809164,-0.4437978325780339,0.2335691419199979
-0.6586217345110574,0.5586921026371905,-0.20585220814200064,-0.028455727641134056,-0.761401050336407,0.4633331646745867,0.5651815532740594,1.4785850858355187
-0.658033906482346,0.19109378023539586,-0.08983459315992852,-1.1712003606719175,-1.0238988858133677,-0.12742926818959158,0.39774697245143,0.21490653986751979
0.7511760092478503,-0.17514118467366196,0.3016468033101375,1.7190051464494411,2.176116944177142,-0.9382136061751417,-2.0724717794506717,1.0209794184746936
-0.7938130301903116,-0.62040527276901,0.1981682599994038,1.0009419918178903,-0.08312563944674622,-0.13637212360772114,1.2389366158375585,1.0129906506669712
0.278248313669386,0.5694977607430858,-0.1930286613853913,1.3517398727844865,-0.8999882022594287,1.7729726425419075,0.2174608764306985,-0.6054616617696483
0.7860807548804871,1.8581480028165323,1.4568922704024,-0.21189517472536723,-0.567927061124556,1.283685435300668,0.38860799950744634,-0.5841725207848156
1.4918051044626175,1.6330552236416624,-1.5717586473966643,-0.40598601735153017,-0.3831894537194309,-1.6974245073633474,0.8701899793021506,-0.8630007617980693
1.3812099786126018,-0.8015430474403653,-2.0974524893664173,-0.6592942828879206,-1.3027212517277276,0.22211585877916554,-1.519958200978663,1.8783777377025002
0.6015354523992311,-1.0125587620912377,0.19866261784068073,-0.9310448623057177,0.22015431251623813,0.874696764044855,1.8807756031815366,-1.4460350423204027
1.710621856727988,-0.144978388531872,1.2573527249228853,-0.28472846906376414,-0.3583389558480162,-1.1748448440393806,-1.4152267020603813,0.7818893140120184
0.6193899909204612,-0.6397464249047939,1.1301287167963558,0.632193581357083,-0.9371528224780176,0.13137993694934574,-0.8403658220153402,1.0800163696533238
-0.4805748371759433,0.6923296551798912,2.3811759518167843,-0.9287550291167439,1.3024593649147371,0.21983015793077526,1.2269384599104627,-0.11867905855995828
1.4171967670016006,0.399801599137566,1.0548468050096163,0.33212205577002146,0.17476628948069808,-0.07696813961742187,-0.0792895929226843,0.20775857489293592
-2.2825199586359814,-0.7036237116514606,-1.326551423193455,-0.6528172404113599,0.24029729667429608,0.5861590530162654,-0.6034618088305722,-1.1335427384377426
0.20359060366503173,-0.7927068999466922,-2.692212948669016,-0.5757573278834411,-1.0375536870389575,-0.3483236743804591,0.30776532312713223,2.09776238185131
-0.8757247657213787,0.6332478890643773,-0.3080870381549179,0.6613287253278393,0.2785558609883879,-0.13648940038633423,1.065654820670224,-0.7203070105229125
-0.6065079960283972,0.7930789049977899,-0.9505412903801275,0.21739704738862542,-0.08917383581113246,-0.3514943724392344,-0.6986814944209303,-0.7141279286647246
0.78448996943971,-1.0017565840493055,0.2701868584776467,-0.5475624621397656,1.7233134331559286,-1.3500523018080268,-0.5545043850246304,-0.5416706485165977
0.7323475974944972,0.117882283665401,-1.0647195677938601,-0.15951927003159258,-0.0684711269079327,0.25896420520236735,1.8525170943105191,-0.005204479556797212
-1.6127754764124074,0.496913975208032,-0.10439195206398046,-0.2394190871751537,-1.8666118952455169,-0.18886144225790213,0.7459692154813312,-0.3026038196354436
0.26866994722667853,1.023358509482501,-0.21655619808398288,-1.7309723035073499,0.22830935113194145,-0.14448215088806735,-1.7267458669781777,0.12701041337454913
0.4252667823853142,2.6148724913158508,-0.39684951966977716,-1.2786913551025492,-0.47390232789148423,-0.05990299346615834,1.3313669297340138,1.0806813505569637
-0.6362836651407255,-0.17046741274470642,-0.343284789228391,1.9539747647911763,0.8446512249566913,-0.7912637322880236,-0.6752133982684658,-0.05311889412496917
0.09590279613326787,1.5334271161708068,1.3994371828881582,-0.10675676480083712,-0.4667698607154155,0.8626377154589825,-1.4169391602010704,0.17520669207448666
0.33418220703505586,-0.2258940020615862,-1.1564218418558994,-0.46951921809646874,0.4069714228661159,0.5537679414484764,0.2986999961628692,-1.1353185824024083
-0.1920180688203088,0.5308621872864951,-0.5808077162454991,-0.937004630456064,-1.824470512517207,-0.7109235898564444,0.4460072196197983,1.29638166716531
-0.7245193911095008,0.4569683781189286,-1.876265278551436,-0.32480919516994916,0.6503659578592957,0.5815932814312507,-2.036027721737558,0.3221596020821988
-1.29507196201614,-0.5470440166026577,-0.10515904567613386,0.007240305515772482,-0.5133497595873385,0.40851143478461377,-0.5207091044933936,1.372601727944691
0.15469442069538877,1.48561400471514,-0.16035728946533884,0.0655997941832453,0.7086565185131558,0.14541686352842081,0.6465742085553976,0.3165907928340189
0.591867764779285,0.56290660830796,0.16616124014825656,-0.10348907877492323,-0.46681979006238306,-1.720771379620999,1.2303559925735796,-0.16645166699024724
0.9525279480608551,-0.6309500813203117,-0.9782174932344764,0.6153028084922048,-0.8269497755094539,0.5821534558845066,-0.6098673151858016,-2.0009530992616926
-1.3814897509184756,0.8426480121215886,0.8218791022897046,-1.4322641020027091,-1.0127414027695198,0.6032747629071045,-1.0417627189512193,-0.8156767000301292
-0.14678975001475023,-1.5401637273736546,0.3215510738186368,0.6748730541139695,-0.5230086274149771,-0.16141655829073587,-0.8712023673743433,-1.8089684066873655
-0.561614366469483,0.22351818210227106,-1.1162811527285859,2.2103317727976943,0.07916258137209628,0.22138893070715626,-0.5492797131588032,0.059842742582478924
0.489950849386425,0.771147728475035,1.3263053710254982,-1.4137662263135993,-0.9704883534558026,0.18636264730033478,0.5436533713465144,-0.4908112583581598
1.6512299494585403,1.391227078413987,-0.31236960213667136,-1.267163544321192,-0.9809366119845065,-0.39522903819876143,0.854492327991549,0.3418478015217593
-2.238604667227375,-0.32373182088451324,-0.7458566380793029,-0.3634361987732266,-1.1710764175605768,-0.015913445300565966,-0.2502756041321406,0.7598552983249851
0.4336076051379249,-0.7486202336457214,1.6234089196299306,0.5935471338112127,-1.9073466934303336,-0.02797598944960578,0.3649768854403377,-1.1121374265955326
-0.27590553113371824,-0.4803100486571504,0.7136042209796462,0.9504065110233381,-0.5715982345423706,2.2671559817080924,1.2352244210051675,-0.19461808740062625
-1.0852270736251064,0.18952541433251807,-1.3059693706735434,-1.2266772478070787,0.014960374359323299,1.2898501660788648,-1.8763395843165647,1.0550751826100702
-0.9323499517800972,-1.1835463565414153,0.40111973179973415,0.6443422857256863,-1.6543399532966159,-1.2040560903790205,-1.0807711699355638,-0.18768554699984227
-2.8446885781931237,-1.4898289326744587,-2.0434016068650847,1.1536558534307222,-0.21874243968120177,-0.6343523187085748,0.2491344392017032,0.9231091849627131
-1.117087620365778,-0.40382641539117853,-0.5270269826755648,-0.13425962604802247,0.08840930807953419,-0.9084239474825796,1.1878059600196662,-0.9387735902194092
1.1347756094717847,0.10166583712700893,1.3640234851503916,-0.4154665473174058,-1.2942051990291294,-0.866323117265439,-1.570671479513141,-1.4049604522645682
-0.6071416021845526,1.8313078830034184,-0.2229979462883969,0.5562364378386978,-0.06789908260084682,-0.09487271193442665,0.4205175817971027,-0.0774285739602634
0.7575749531652763,0.9827084708473004,-0.6775864018882102,-0.1259753672379475,0.10318632998087132,1.450737792393858,0.5884534756843771,0.8725053521881436
-0.5627810332272632,-0.8787210833107453,-0.003286655539479284,-1.0429676888796835,0.5634487252297669,-0.40055926882144444,-0.45267077100290287,1.0053184442231569
-1.8983879105436323,-0.3156468688962089,-0.3286765342951344,-0.01767909448824798,-0.19547994134049446,-0.5184840317076753,0.43667223588550985,0.3544574954792946
1.1492580576409759,0.4116150630194469,-0.10443456801584705,0.8371658886455315,-0.9803367543205869,0.5223720673217888,0.9741863157430304,0.32836546301820646
0.7789236717633651,-0.07976771576007476,-0.14816328408572513,0.5457840635134361,1.1535122909728575,1.5766769319002663,-0.4893876700017972,0.6289946133154583
-0.27423159180042056,-0.6180201367933258,0.4406856457605279,0.4046902729822998,-0.4014026438186002,0.5710239118319009,-0.06391159859240467,0.2176127806770813
0.13078123084573898,0.5401992722176425,0.1323881846088573,0.3524008460439714,-0.26597518430863015,-0.5021115484245148,-1.2503735201260044,-1.1413816460722104
-0.05467924952595518,-0.627628226464125,-0.28225773571863394,-0.22722711593988287,-0.6317161519126342,-0.25492852968841917,-1.611300058032912,0.63191026299735
0.402965522645862,0.7833948973235146,-0.2727738116751883,0.17092847589272678,1.1483067768610615,-0.5928739555669327,-0.5073240887821585,-0.48232504753918437
-0.3937023494103751,1.3771070478911593,0.21458009559003086,0.6117958019966576,0.509523431120397,0.8998289085937541,-3.0227510013738113,-0.08878539447362857
-1.8828917480505334,-0.67240487544304,-0.3599972669446512,-0.025241527857840586,0.8783892468693589,-1.7733062200451974,0.1760438908057794,-0.22132516251934498
-0.4185178115913967,-0.7608743343873664,-0.44115551876137193,-0.8375303443918883,0.6468754562766714,0.8179056775132715,0.6628025983074882,-0.43797437188882216
0.729143989476453,1.1021590799538017,0.5389128854572834,-1.6266150538476531,0.083702748825931,0.018085959727943975,1.3950955032930008,0.9187411730010201
-0.3549290938271558,-0.3194971021324877,1.464361029248774,-0.2725976773556737,-1.29201860522303,-0.4163989105245339,-1.7856119666880137,-0.30335439305688944
0.7043791478026665,0.9763668264372174,0.33898064522311006,0.0037489160126584907,-0.14396775414698157,1.5229500388752384,-0.853416783631966,-0.5479657207012557
-0.03571747281966875,1.5391981357179643,-0.6650509762510586,1.8504452856940865,2.3678810900197544,-1.8137839265089146,-0.0668240741047159,1.9533859537214355
-2.5523416448210545,0.4031643083910653,-1.5536726079965737,1.4527285092553104,0.7133927977416972,0.9462035293998017,-0.34133655529495116,1.6400205958108003
-1.5024901546130014,1.3972385313791298,0.7474823875324997,-0.07732937122427395,-0.8137659049830817,0.31153059368729713,-0.5725261211935685,0.0980119498145386
-0.25742809624431084,-0.47144012971953014,-0.22131699902348861,0.7970034530177972,1.1088364515339932,-0.061111820858668724,-2.72474944462923,-0.7295255220514971
0.202823189324129,-0.40374447656404333,-2.026197079519802,-0.21830001071211175,0.26018661281160593,0.9569414929892804,-1.3935601795975792,-0.4624720411994006
0.09126947645977818,-1.3830762221740978,-0.34448931451352965,-2.220084143435907,-0.6492587869569648,0.5075271708775545,1.2963724464399855,-0.18041337529772736
-0.04288550782418561,-0.09919494974525901,0.6906043321137191,0.21526351257355214,0.9385803341227312,-1.1296752803004784,2.0925651649564116,-0.8218888583189354
-1.9610453426222059,1.260434395288123,-0.4602496567624271,0.11910829194613469,-0.9710679703944323,-1.3933214628279884,0.10002753089186897,1.3900131563755318
-0.19138689230200068,0.05921643484516542,-0.8781742201457149,0.26269586375160064,-0.27446629217778906,-1.1469069201375992,-0.26454998263855517,-0.7334936092644143
0.45018211569920646,0.5432029284387423,0.3716827374922027,0.6853526114191085,-0.489135334525453,-2.650820191210524,0.2837614970455298,-0.022289903243999695
-0.2592657868077283,-0.46565084727969125,0.14227282918405096,-1.1787825718427725,-1.0491691324382186,-0.9598544590208503,-0.18901139032028405,-0.2260685044151689
-0.8945746760041865,-0.40173012630370447,0.04554018870695214,-0.9920709610197315,1.68731842796916,-0.1587260950952799,0.7987486761057947,-1.672857369510584
0.10721677290978675,-1.4745078626028691,-0.48009008258387764,0.9332182941624318,0.006280863600895342,0.3856047944292951,-0.9394396493311623,0.9924257941645548
-1.3023273149072125,0.5407952041182781,0.5780309824294656,-0.4245125437734251,0.7605099768897803,-0.11564134257145464,-0.10474514347818274,-1.6119998030009324
1.5099032683365796,1.2910060177732217,1.3304088306839388,-0.10655940653395288,-0.8621975850071013,0.010041714061329579,-0.139472241843482,-0.9926886532639563
1.3869154733077096,0.768112666491252,1.703025409857832,-0.5117995880332508,-0.39768851620552736,1.238537961417069,-0.8100656476245446,0.6342956817809106
0.11984549550243888,-0.09169728325453953,1.1110961648557676,-0.3390765048541493,-0.4715761756075709,-0.21058344687064307,1.8045437057044096,-0.24367364188123622
0.6613967105806433,0.03995365426044649,1.5065530629159034,0.2618181083457569,1.2981998728524766,-0.01897682451672814,1.2744058846277404,-1.2313777552351715
-0.23404242573759326,-2.1411110236957613,-1.1899759129218113,-0.6355167678482762,-0.514679711638401,0.7222421850889889,-0.11568306250908138,-0.6074806460979224
-1.1379699807290484,-0.11808328214518939,0.24785165023552405,0.3661354602693425,-0.18610419157742336,1.2408198253314942,-0.20867977333704882,-0.11803573047248762
0.6679081861713045,-0.17811531581860784,-0.8189181332728367,-1.1927556121727438,0.377255184678632,-0.5454007830484907,0.7480457682508374,-0.48205071084449175
-0.0703311741808101,-1.8168653669572192,0.8080321227168114,0.602626400252028,1.2864056691723973,1.1241062483287214,0.0696343973609144,-1.503738968071502
-0.10832961594527067,0.1862455848839865,0.9784994472885119,1.4503035078668398,-0.924131529183059,0.40559736783701855,-0.1008684930101535,0.18648155731845178
-1.4852286339732148,0.2529142879259993,0.47795604032260236,-0.3461865303605956,-0.5523951156000795,-0.20010657437251567,-1.194013121345684,-0.10290012455589871
-0.8956131376678571,-0.5657605631402473,-1.974034697125822,-0.37382383771124156,-1.2651907355142247,-2.001473613203488,0.5916811799164198,0.7717935875123559
0.6391137343597187,1.1033072853758656,0.7209849188369386,-0.03198315360356757,-0.845692760574016,0.3456589501878528,0.05880756083625779,-0.39642566221039854
0.7020303563095998,0.7918718293944854,-0.11060675560531431,0.7395330950086584,-0.6250757838507027,-0.19948310259123686,0.6515902134157816,-0.557057752155389
-0.6410606742797401,2.1450619832612148,-0.23600132585675185,1.1376544010130263,0.41327468827710395,0.1694585152177294,1.0263660650048896,-1.191257200140744
-0.501122880332491,-0.6668591776904321,-1.3212125440106368,-1.094576401179822,1.4147285528393425,-1.6155612779844202,0.19643475630599452,0.859382069579396
-0.1359097629557341,-0.4998949225585933,-0.13459270018963465,0.31320038853294735,-1.1445030654217951,-0.9427422418611376,-2.3013840327334965,-1.0525513610024664
1.0475354545158608,-0.4045416512292582,-0.5831636463277697,-0.1692465222493698,-1.2797265768570978,0.864990019758792,0.6269737907448522,-0.6701203905048796
-0.6878693951520063,0.745651283810937,-2.3546293466561643,-0.3849830380733521,-0.30349896717033453,-1.542375752065709,-0.17344923364708004,-0.01751525866747558
1.2169458343117359,1.4239894235548618,0.5280286741403338,-0.03331898465487577,-0.34146618584999733,-0.8728209230688938,-0.5238054819453629,1.030339502037664
0.27749407446862495,-0.1446211508380034,-0.10256812094727949,0.05704059168780931,0.9612438863917819,-0.012021419365879563,2.356501555888828,-1.3505464723189664
1.7015668859584991,0.16497515849181982,-0.10510185749584372,-0.7398138892001368,-0.6037307718000741,-0.12474482778752698,0.052492753198920446,-1.1015299933648164
0.14645279470580086,1.0288695807478496,0.31221774549900755,0.023032563343467264,-0.49987845698387484,1.0106143042887363,-0.12457234463247943,0.7119248501025143
-1.3567883366658982,-0.835435022444714,0.44468579041413947,-0.898523682281235,2.10607513373696,-0.17090765652487705,-0.28633106056544505,-0.912804828548262
-0.3457050855014474,-0.932659767956317,-1.5265509202841379,0.307718235549543,0.04713062686535106,0.9443655571102557,-0.36588319573690553,0.9376408433673927
-0.1481555504428959,-1.7476231104306252,1.378447456114983,1.3062673358082966,1.1731852752668688,-1.5352201638046437,0.3046745966546274,0.549001909826555
1.8793965737532834,-0.6295357139386532,0.657009866398998,0.36177910658291407,-0.6539311784736319,-1.182387891074187,-1.123763298881448,0.6830414755503692
-0.37782862715141013,0.734440573580149,-0.9124556954841795,-0.07237271083043843,-0.9325260817089279,-0.48538491767242636,-0.24055035978631165,0.44457685035251765
-0.09017584949810276,-0.04605472454522691,0.11967476744023285,-0.5921287900684554,0.21647908240636995,-0.7617424182783414,1.683845219700035,1.1523008043957417
1.7951462037443033,-0.2612108101883105,0.7271701498995208,0.7065479363364531,0.9524188896630358,0.17092847859601915,-1.1784226390038397,0.7354990208628079
-0.31324922761725554,0.6082834543039423,-0.29570356171994905,-1.3100928263992635,-0.03718420759435218,1.866229730021148,2.8261654682745188,0.12530505967723807
0.5873220564764206,-0.2528968575199156,-0.6151096014664352,-0.8537735467886806,-1.01221627149231,-0.026175757321854357,-0.12431622985166223,0.009593482272039454
-0.6860321798050207,0.5571265179501521,0.3381724942687245,-0.43578923616448983,-0.748743340597226,1.1888356227230723,0.714985459253453,-0.6333283819207822
-1.687129770106957,-1.475545193274719,0.8931155653978731,1.9459713079045877,0.4080378589981239,0.5310471108852066,2.13326674746724,-0.18167001942965277
-0.5408760439195979,-0.5509678703729851,-0.6634058069657794,1.0200701681059066,-0.026067804759866628,0.11793059836109421,0.09669866671861285,-1.6596973775564938
-1.1398336430906477,-0.5454178885803604,0.5004161416526542,0.12943570952195965,0.5181725544143638,-0.349683685597902,-0.6001813244129319,0.16801105021156215
1.5777057220780915,0.2659402691765242,-0.23689829646820929,0.42705478329278823,0.347591248355832,-0.5496915183960237,-0.7673665654165034,-0.789738040359487
0.5928854431770193,0.2994010774049199,-0.22022587026595525,-0.4009128163946511,0.5948338926587143,-1.552136983414929,-0.71113752669376,-0.13179817617961595
-0.967234652707243,-0.18532183054065388,1.082578996507061,-1.3838064855009546,-0.08669266543363274,-2.421172871199139,1.1132613544170837,0.18712635107772468
-0.8237449020150324,0.2480708324838269,-0.2251852512880475,0.43703890932111444,0.7514665360527161,2.0153283529884676,0.20651732217903668,0.6793060132285722
0.28472723124896815,-0.4919000110324576,0.888610993746226,2.479368106269041,0.197284207502,-0.13884278641985592,0.5365914764043225,1.940015251181761
-1.3321100215508659,0.041616265288484215,-2.0465521055756692,-0.3631125101698819,-0.3620462467756663,0.04038628562520452,-1.599069772332541,-1.3230634478737815
-0.8628578933466781,1.5674846008471437,-0.6970869405270661,0.037258421481068935,1.0446436734631495,0.8828317382780677,1.4425355507688455,-0.711558281463006
-0.49866588597368605,-0.9765371051423751,-0.7929008326472236,-0.040270565002474445,-0.2697405775077098,1.06130053537375,0.21280428349593503,0.9929253307525083
0.8591100502414305,0.030100057164773517,-1.3577446621927267,-0.6951822048986035,-0.13626342048291354,-0.700714211256588,1.6300301086742663,-1.8839802432587855
-0.9408206257920436,-0.022289488516150723,-1.6864478800209262,0.4531528129453983,-0.10139451868532588,0.7902361660246598,-0.007757746664366567,-0.5913384800138917
1.3346107691130227,0.45268166034013163,-1.0191043088917295,-0.22784410935493943,-0.2540066313753826,1.1936351960159448,-2.0625603342446337,1.0992614801467422
-0.00183479539547401,-0.35338405258188654,-0.4912462784154949,1.6127615093450085,-1.4168522572596904,-1.3713716851814728,-0.3542552321929725,-1.197387514254205
1.4810165904575774,0.11292184180580012,-0.6003782644050186,-0.3291211773110111,0.02237909385538086,-0.4598936809091731,0.9581718694291138,-0.21800276993944376
0.15399427094269932,0.5154088431355739,-0.22361527000835957,0.20335518602603112,-0.8296337286451095,-0.08201422668183536,-0.13773834493493656,0.28140431109890895
-1.8357693903221686,1.9469486883311606,-0.37957937327922364,-2.320380153983826,-0.43539258347012866,-0.5267159706478124,0.24260366784891227,-0.1395784482085357
0.4507505495922555,-0.5998489402468987,-0.49255825156780536,-0.9175883175569625,-0.8282346606989083,-0.5124620144278271,-1.6449904238248394,1.7031827117275617
-0.3074348148560465,0.6790738427513975,-0.8997785710106269,-2.1439729722327314,-0.8322700611810064,-0.49192367530580905,1.3028576369072553,0.06041980884840778
0.5990233737505218,-0.6369708664899632,1.0095056268415044,0.7456364650903261,-1.2953032540477882,-0.40224532244856204,-1.687316460099291,-0.4146744690399794
1.1154426158465522,-1.2747058730064997,-1.3754918544625692,-0.1300173286276935,-0.7771452123945454,-0.06306002785436536,-1.711125627279501,1.3768892890694386
-0.9996753443930396,-0.49917733652367813,0.9005296742292519,-1.3732604276129439,0.04398488095514159,0.8190714076522423,-1.4864652804625573,0.9032168654376477
-1.0077988115727452,0.2186980210127557,1.014164060712779,-1.2367163369578,-0.4092318610777603,0.7257412296171344,0.12605990773338574,2.446565720846657
0.3180123780307728,0.306892419304969,0.1360422577217192,0.3593063027528254,0.3806292729769997,0.14051029832702977,-0.1545658158205908,1.432103087946051
-0.5308253395058876,-1.0437910062267466,1.006468891485786,1.0657657327697858,1.1025578129488085,-0.09598941494263132,0.16093397164815398,1.4329244826802923
0.8876675406645158,-0.2543716502959446,-0.47030384264947883,0.8189353412753958,-1.572596382509806,-0.32194776278781145,-1.2440013153682987,2.1587514380388075
-0.5935944849652057,-0.19084194422186962,-0.1803070445534145,-0.7584498696427832,0.037456770431807285,0.7837449037361297,0.6790914869948698,-0.6514885766852531
1.1939344853842608,-0.3629885471934637,2.3893640773878744,0.061236024953625685,-0.28774544786178374,1.1055401617505147,0.794016308543618,0.06192430430512137
0.7372321189595491,-0.8429147074779972,0.365511906543963,-0.040666578635668034,-0.4809746111343399,1.0059363591355117,0.8960110075207136,-0.4030348596076021
1.9599925211423437,-1.3246707481081217,-0.47252844767231156,0.5541035649467558,-1.0849601511803975,-0.47719992400736433,0.04247802310315753,-1.0871442161018297
-1.335704949107235,2.23933288288698,0.5275355957263878,-0.38106885265184004,1.139420987453801,0.9486041419613516,-1.474834795272162,-0.47415415386334825
2.0248533039483756,-0.16820409569398778,-0.26796692901899416,-0.5906977244097021,0.9523317706467376,-1.200179027711567,-1.2233357940838026,-0.6250303871051222
-0.9453938172021885,1.1501606636581538,0.5531562256675893,0.6107353412241846,1.2091421375554523,0.12174709147484017,-1.1583113143355541,-1.0336623138384708
-0.7160755857628521,-0.22468493234186027,-0.1878534128126469,-1.059156728354218,-1.4309873070879737,0.2282276177842548,0.5830862995602816,0.6809880604317131
-0.1182003173973211,-1.0026017961683193,-0.17045072008106635,1.507384748708085,-1.4687888147332975,-0.3760536085585429,1.4485524767458877,-0.19579094889925858
0.5301723269442404,-0.8279963388277539,-1.2601134013848998,0.5978256550987568,0.8614239940037199,-0.5206173392012104,-0.25100661328524043,-0.87239400525257
0.15868199529453664,-0.6399732184132438,-0.6036527183885763,1.664334962947483,0.06656586327991569,-0.16313724958227613,-0.5033758018650104,-0.010959181026845224
-0.5059517716087525,1.4488815402740234,1.4700544020174382,-0.7203293451812497,0.03233440454665387,1.0393433768495364,-1.2268438395125807,-1.4549987553795838
1.8844738225382853,0.5599541278595198,-2.3782125407011905,0.4256268279603032,0.4315053342086123,-0.36729791067860496,-0.5125730594815339,1.5220931958102901
1.1258866956510172,1.544835662702002,-1.0048983898232404,-0.9865155532121525,-0.3497374773279657,-0.1347194593360693,-0.326926304067166,0.06210358630176801
-2.5118222110659527,-0.7248078281080726,0.39461624317060956,-0.2448362848405002,0.20560574290790487,-0.4803721012484866,-0.505503826699329,0.7267771267288063
-0.025870514847768464,-1.071134418989685,-0.07125581596290813,-0.07847770092775083,0.5210435417423933,0.7851906099861486,-0.5845482426245547,-1.260381839770042
0.04411213544600789,0.7436809224700013,-1.0451873230465067,-0.8887765729521013,0.1696215534005531,-0.22307661771073203,1.1035775386701898,-0.9791464513208527
-0.28629239995713013,-0.3667981382483399,0.25609232872528115,0.5550419736891415,1.5774709971007173,-0.1788007173994677,-0.5385553868063596,-0.6076066789224013
0.11587742410595456,0.1490661906649997,1.159047804856618,0.9250325259951341,-0.15391775793772974,0.25610056454475594,0.2358982646181062,-0.4866449167827152
1.042759340521308,-2.1835126805485108,-0.6461195830499734,0.5999458017824195,1.538167050569412,-0.021640759552337584,0.639281646917341,-0.00953192407014576
-0.25792333219284935,2.0987117007266014,-0.8191325780499629,0.24747958348372545,-0.13909451087268884,2.1949481899192738,2.2054882623767216,0.9189496393285511
-0.1585427883617662,-0.9434889464287273,-0.08882723084223351,-1.2218207292628598,0.9742284666490133,-0.34259152055620246,0.6135441502304838,1.3547755394739414
0.3071014553755304,-1.3007735798795776,-0.35580311825590477,-0.6406969325447116,-1.0549809078043866,-0.5674166988389768,-0.2506211495056519,-0.47276419960775584
-0.30467334451494854,0.30948401638903583,0.5267860540414133,1.1478849846832948,-0.125971880336467,0.3683869000891837,0.8499038188167506,-0.626158588627509
0.7384495494905869,0.10226301646240371,-0.411567307953098,0.5734429200343591,0.5865931834055862,0.3899361908170823,-0.5087877830598413,1.371964194021167
-0.3752315278876381,2.8523463908080386,-1.638769242335181,0.4037476486063296,-0.8053991431700869,0.14758282064814437,0.17109183918536253,-1.0207935557598962
-1.1548950212486349,-0.9288847840993347,-0.5156817885930337,0.14205113450918247,0.09529813256606547,-0.6551309024374592,1.2464896280850595,-0.4470032145238618
0.9658151917114612,0.719987838086772,-0.5460799923264907,1.6431276973571072,-0.5675938266357717,-0.7468968551293315,-0.01535809245407153,-0.5924644791782692
-0.38353171750535914,-0.4117601209609867,-0.1971294327872152,1.6388630867412064,0.8993551457931416,-0.9845011789959777,1.9791157242344415,-1.3501013709911218
-0.7638124876758997,0.5623007499238979,0.6197514464582421,-1.9229887299266109,-0.35062540325256925,-0.18416964101659722,-0.5425306459093432,-1.4029118265203224
1.7582223386770668,0.16291916493449327,1.609873583005687,-0.3451984552491127,0.8200217338483466,-1.089982212053865,0.5722542379168943,0.5142344243429665
-0.45059121424586107,1.6228641368520522,0.6738987635655057,0.9580141232947522,0.2500387554555942,-0.5390279051238696,0.954786531008122,1.162204967087513
-0.9186002722715358,0.40881204916705516,-0.03423391861405825,-0.3176913305122928,0.4916203186856672,-0.5336989598826287,1.367583448022289,0.5088860408413436
-0.1055981059223221,0.09591171390963554,1.964707414673767,-1.0712581237479566,-1.1916941538047663,-0.2320418569914328,1.8999098879048448,-1.6005935887821223
1.856334844640196,0.8716049894493693,1.1774673912838112,-0.24863920143095236,-0.4500666696692431,-0.8116943469111402,3.226447739690871,-0.32178985011339467
-0.21785448406020383,-1.7708726296580661,-0.14967131041774165,0.07129576947402919,0.2411221836093603,-1.763553202294493,0.3113539728581547,0.031618763035195924
0.27279549072084797,-2.36906601238455,-0.9651526342154558,0.5543337791330831,-1.4167564741179872,0.21804729284116808,1.212987940446142,-0.2232369235238901
1.359781547482173,1.3216747681305745,0.3802412664912398,0.8375344976561973,-1.113212024523453,0.9548639372372018,0.8714010040385246,-0.13316122256660398
-0.2158509828763522,0.9789097283640419,0.725967711383387,1.7010719370846976,0.22873142998629004,-0.3638702256493277,-1.8369270327584173,-0.9893570116351075
1.7490966885509343,2.10914507013115,1.2319927386072587,-0.3594572033386452,-0.8642782344015175,-0.9689086345668658,-1.090961532519854,-0.1010081339254739
0.004625582480072721,0.7464963999961732,-1.0074987650653686,-2.771802541661881,1.00187838654393,-1.2226002656686037,1.3428729557971784,-0.028445600068326877
0.3998797900575755,0.052414312804669086,1.0401604104021882,-0.09503368898692138,0.08564556946265595,-0.7978415124703391,0.11252276544220342,-0.13559823554982647
0.05193573744946683,1.7064220916503237,0.4288770243677128,-0.4408565069644762,2.6109687299539086,0.12167887292052441,2.144554308757205,-0.8876161642075259
-0.4327089414393876,0.5488878860723927,0.9650321009743635,0.33766658960227286,1.293892374760457,-1.1474932208400135,-0.12349119311623236,0.0522682994511257
-0.8490536500272986,-1.22956964517885,-0.27287128439981256,-0.5983829379707222,0.8797780572990915,1.2354127225529712,0.6578699841698917,-0.4444898574248631
-0.09955714972630457,-0.1121649658533996,-0.3038613169265054,1.2820918907887073,1.5597018276727317,1.300359670847194,-0.006174794564533527,0.6154378454960435
-0.2757303555091574,0.38445579959410753,-0.342797195739572,0.4917264745818557,0.10880045692460628,0.5612556470618927,0.8913669167716854,1.5991923778813755
-0.6297238079903128,-0.7817858660972292,0.286190306866416,2.9991976668965346,0.6199468214645908,0.03509362397603073,-0.6017750958155962,0.11315769482934972
0.015113137848820497,-0.6322519693340589,-0.3498687693795959,-0.9120768429379693,-0.394244929023933,-1.376138475781693,-0.20544564001963087,-0.5982523222801026
-2.2496151672899716,-1.5672429708830748,1.3525898313225728,-0.21577571152043273,0.185584405783696,-0.11046665187903972,-0.0035161984767873304,-0.5018611815050011
-1.2458480511685832,0.9982235426152474,0.734676047675272,-0.36463718288253816,0.9813426228118258,2.4049417367785177,0.04090634136924224,-0.36208037109093716
-0.6847411665199508,-0.4952368411796837,-0.2941625431610334,0.03591210928663521,-1.8596168632026382,-0.7452350679647908,-1.4688357603626616,-1.096427001612188
