0.9392630265389119,-0.28304602792287287,0.26317111035921065,-0.2841806383068285,-1.166013681485653,-0.16004553631498514,-0.7906845482707585,-0.41126332466754173
-1.3106189692713137,0.7249654003685015,-0.18240786449327495,0.34106739886304005,1.9448448635639426,0.33213203493139265,-0.8379007570145293,0.3277401050844569
-1.3214169376657372,-1.6876695438136724,1.2562631057726266,0.12319570562711109,-1.762438211914137,-0.47963686557341734,0.12145804637331559,-0.49363962686221524
-0.8177578641380154,0.3908487033542075,0.7937030378151042,0.19285968044028687,0.4689353531233143,-3.1298461924294574,0.22893803910150765,1.9655898725371836
-0.6381176683708059,1.235986580276414,-0.3166229901462808,0.33631337080286033,-0.19541285611088482,0.6858803944108437,1.4873778865331717,0.7797489607625233
-0.08583320077780447,0.31017158580905785,-0.08632633594998337,-1.9791603378576956,-0.5797477855062362,-0.2320743015329976,0.28486325782606,0.701631814993094
-0.20992627251086057,-0.0686261496720976,-0.7640220261073639,-0.035658740605623906,2.436159657407006,0.7700632775315835,-1.3665883505035525,-2.660224328934844
0.693279999822821,1.6225519961751544,1.7327570320654173,0.9365721761399193,-0.2186547073552663,0.7072407819382441,0.8334204325367454,-0.8027268969967385
0.710340368109262,0.10352823649087964,0.2754546324888773,0.7900052054693715,0.06231966756398033,-0.8049364878840556,0.020106481177966175,0.5442155510023642
-1.0077982449702458,1.946721377042844,0.7071764011279958,-0.2837502200762862,0.8818795895931928,0.06923412429478336,2.4458975491435835,-1.092206124286783
-0.5513626534267749,2.0428681550279495,1.6662317445602401,-0.754463222855508,0.06253115692538122,1.3809422583052113,0.3101284201135916,-0.8590447320497873
0.48940672354268344,0.5992710421057991,1.3823249996405458,-0.07012496650103608,-1.2098710563904926,0.3490858361216606,-0.8322916825905076,0.424938587063122
-0.21019409043710074,-0.006532981056757181,-0.5276859378563833,2.504659297317323,-0.002343659374974871,-0.10634751621483003,1.011647554735745,-0.4781733108115627
-0.3985761506256737,-0.5732661440437952,1.3250951937709783,0.40834378985565956,-0.7213308520170536,-0.7701224105788057,2.003384878271986,0.40711299445024324
-0.36084732284097093,-0.594839620893463,-0.7507045441295419,-0.9491376857406819,2.124095544029247,-0.0014316118635906531,-0.673435262816366,1.0774653865579484
-0.47415386640918533,-1.9219067990519876,0.11995648564252812,0.10977341228950332,-0.09175106441675286,-1.5959123487224645,-0.5196066298710069,-1.2538082487929054
0.08895195706366905,0.774583218086984,-0.3043972905173172,0.31721079791069245,-1.3740762376089941,-0.7151083222606689,-1.797886861288955,-0.3782556549551128
1.6253332581386104,-0.7503553884363721,-0.35022068275144996,0.9451691473122443,0.6466907735962962,-0.8279939301588646,2.9232085825911773,2.11923147271599
1.3329213723625615,-1.4343023158191337,1.6408134363600544,-1.2719635812408403,0.7824048100319679,-0.9845941076993796,2.2869752279082776,-0.8457755452196881
-2.8549301756053658,-1.1029222710842888,-0.5643730629826473,0.37075966699982477,-1.2057753713559671,0.46486170331082916,-0.8397868620269258,0.29149752285057684
-0.9116017592186065,1.1317673085201894,1.1804199160777884,-0.02765778286689165,-1.6517815556069193,-0.7586753579756919,-1.3402704672349568,1.1476442332500032
-0.9306629709727414,-0.5916256757330539,-0.9974196414658113,0.2658541139509789,0.5209386502849296,1.2638913932514946,-0.7079619867355676,0.6823965854805557
0.3936442701936437,0.620164006724966,-0.2084522371664856,-1.220518252874754,-0.2628687359435527,-0.48232372262037226,0.4016627250101595,-0.5768595077429352
-0.3116429806891704,1.4232555485354634,0.8774179528999423,-0.7601082411587976,-0.3525232811324509,-0.20794079888367542,-0.9146811264456484,-1.7322521343225274
-0.3864590070974975,-0.00876699519488115,-1.3084997385754418,1.2167476728983642,-2.341113682075942,-0.8252918220016908,-0.5268672049956193,-0.9448774788135244
0.5088674845482282,1.4503920199923284,0.8017141508998067,1.3488076084751743,1.9003303343191702,-0.5952358040780831,1.1126528764372976,-1.2433567120202407
0.20920876444880498,-1.4711074333597136,0.3433531285207508,-1.5798682889161226,0.5920269369405156,-1.897698687937635,0.7450646657880106,0.6823750613648237
0.2713404159353558,0.5044884866841621,-0.06760313546391945,-0.5243004420563888,-1.1415382993523848,0.5023390192867956,0.09885802586457808,-0.435232078687394
0.7473372460636362,-0.9538514314063018,1.0560430889243606,0.15341186886493938,0.7434573308854159,0.3098543678641706,-0.9389619349663295,-0.30731370366534255
1.0510805934096432,0.2882510466437322,-0.8800776386598382,0.23280805759135706,-1.336457857737812,-1.8387145085439995,-1.4604164033770257,0.7337755499372369
-0.15722718216707965,-0.42249567452921727,0.08535895926407584,-0.6602258080884167,0.17642822859921617,-0.06205330365627959,0.18030224884152377,-1.139481096199015
-1.120705532325706,-1.359026888645289,-0.5239684198207297,-1.4520178073802736,0.9489340481395615,-0.08559787156483654,0.19173203530108568,0.002446810489901675
0.41971252940267784,0.47295299226531506,-0.9228917875431196,-0.535294362359621,-0.14034823838927418,0.47642443683085256,-0.17616052555488432,0.061864097983273934
-1.217520081951448,-0.3907281287292663,0.7060136550046021,-1.293630706412842,1.1393152790975865,-0.31744538363412395,0.6998817498188216,-0.32472453207987356
0.31553919902067007,-0.43376038493857566,0.4080476197954803,1.3540733836426349,0.5964409949792596,-0.5425351725239096,0.8302548025869556,0.055930635469575586
-0.04452164580803512,-0.255619365817109,-0.1203517761244891,-0.8229948431720795,1.0525759817912093,-0.9250409972211605,-0.4301759550208253,0.7687861611669355
0.5454467634981287,-2.1682062280623797,0.29496240553705694,1.401853285021788,-1.6122317190837285,-0.19508245134089314,-2.323130723683238,0.6535177771770287
1.4305349070004767,-0.06112491083409539,-0.02816579674923413,-0.320454878821047,-0.14938109983414224,-0.06309234772299198,0.1442012380765538,0.4896255021262886
1.7060332464523023,-0.3545158090445019,0.08513040374077024,-0.09908140888935982,-1.504288949873541,-0.9227133252963171,0.5985918937060283,-0.09154813033721443
-0.8865428467068291,0.2138259998814873,-0.8365238703707709,-0.4998322805796409,0.006768675119362127,-0.030758284513677514,0.7307675441901862,0.4825474936594864
1.272374426157078,-1.0458666797393805,0.19272502102014566,-0.7367493160740691,-0.6908993729720094,1.0380944510699937,-2.217574568475516,2.6433429427103063
-1.9938165405109916,0.17035992507148445,-1.2384134630652028,-1.3923773453961459,-0.2342108929353249,-1.256765839061535,-0.23120758564231486,-1.5526230122880191
-1.3024141837836216,0.2957563328908566,0.1475634677617488,0.08085326367679682,-0.06066234959600788,-0.2536854510850458,1.06670145548512,-0.2356674171390454
-1.585057138277403,-1.1885126871144576,-1.1670045933229845,0.779672745945039,-0.29140038586449535,-0.6652818017430332,0.9893747809426447,-0.9745274532334642
0.7147879175942212,1.4694612168262478,0.13240007723202418,1.2311691133434857,1.135291089599324,-0.10925564489556491,-1.1883827494316745,-0.09488558153425444
-1.2068626146516785,-0.2937373201374506,-0.428371573980211,-0.5043818611782398,-0.14699163952047495,0.21635349056317926,0.37992397351173596,-1.27431351302048
-1.4890496871171874,-0.2638128347458372,-1.1113406290600791,-0.5953364364891628,-1.4339865527824807,-0.33655609071996295,0.6917650533929632,0.8519477911595618
-1.823265306472858,-1.3420855071004985,-1.101567051799049,-0.49094106969255746,0.3720599588243947,-0.3882638312968588,-0.12837266494431393,2.5296387179875164
-0.045031580486958836,-1.132126131306851,-0.46761722500782,-0.3747534866135046,-1.8630860604385096,0.24350720868166417,-0.3949864908409753,0.42297586630350276
1.0096444753632376,1.0467538159006475,0.6169310703397379,-0.2557070978555623,0.2202784387141013,-1.6216494178304937,-0.10875185783901999,0.22094954688996166
0.04253664249994114,1.0720260982587821,-0.5363154111946395,-1.31220747926643,-1.559466752078606,-1.0309379820097408,-1.073690303685162,0.19014276009097295
-0.641635362001034,0.19835622481504206,-0.06707970023741215,-1.1276757380175366,-0.4988021635825966,2.6089074920020567,1.060597791706848,-0.6159931015870638
1.9827030723599826,1.2847360125992038,1.2329348970059857,0.7280192008505971,0.23686441773473044,-1.42427175961307,-1.4207523311950725,0.516489121306373
-1.260115867501183,1.9346429995018524,0.45040866686731296,0.300704527097468,0.24102781414144936,-1.5096674969032333,-0.3562274282911822,-0.5649057821522246
-1.1719179365124661,0.606695621612037,0.07807730526302561,-1.9909583606241543,0.8783063648321228,-0.4031913401078551,-1.1241056600543904,0.36375211879471986
-2.1286093236199606,-1.3391586963487678,-1.3042834358564057,-0.4539532735603185,0.04902477692959442,-0.25651797460055625,0.5741936219620377,0.1498571940106575
0.900743255463466,-0.897626601513456,-1.01017354312437,1.621034656178071,0.9616969040897071,0.8169359893770808,-1.2715206722908574,-0.16972171159457108
1.5715323543837527,0.4801641651511338,-0.044012464812063105,0.06674154521998668,-0.3951204802364495,-1.387244642197134,-1.4943137705467746,-0.24895553209445428
1.0270376253644569,0.29432591384775103,-0.6338238625707096,0.7625164949880582,-0.704418058056426,-0.2251449195773375,0.6644121131088462,0.19002853458480143
0.7326737741551659,1.072914181198762,-1.8713855210850345,1.7958587370257555,1.4730613008649776,1.6820957139816903,0.6735372764007144,-0.09340371059026455
-0.407778498523297,-0.3105354378735278,-1.191287007177278,0.5590078583397481,2.398307631619484,-0.46240552615372116,0.06385997977984227,0.9894356440024671
2.784963817177936,1.9354634123684284,-1.5307818117784593,2.966290994463293,-0.35386549545736234,-0.6626550504556858,1.4634554495021985,1.533546378537143
-0.6383271874664181,1.2172462242709619,0.672220258022665,-0.34638103861432845,-0.3915098231988438,-1.7724103004104583,-2.1034623746948076,-0.9802215407892856
-1.9122432333563861,-2.4695077843939566,0.21053264089997137,0.3935652619000303,0.5658854317335387,0.3515269782649443,0.03105769538694605,2.233951761165524
-1.350869102497809,1.0432325724008893,-0.1631119490063399,0.638685292472956,-0.5385635310980886,0.6972317570284392,-0.33493230648397687,0.2565521196443306
-0.8153730588642486,1.6544580638001882,-0.3774903955680342,0.20838753679544753,2.122079138333077,-0.0008139511416329316,-0.8438181461377399,-0.2704226313787951
0.7404283084690103,1.1916685772652682,0.5133141199346897,0.3008560612984717,-0.8209685629622885,0.394464497962918,-2.943403866058795,1.2943979507124828
-0.4994315481099593,-1.658906385113317,-1.4069694748367085,-0.17355313102534087,-1.6795726658422006,0.29918786850691,0.44571810634756887,1.474839875775184
1.1205027166148314,1.0991477256490836,-0.37085903478627885,0.30784556636299565,1.2045377481674957,-0.3962586588917289,-0.49067176113815125,-1.9529018110134746
1.0515346927207134,-0.6881339751684545,1.6539480041162031,-0.1691711103933263,0.8273722790154628,1.0713741933206693,0.7865849163726676,-0.16582568071443102
-2.42110516091895,0.6826232551647453,1.5959896322690823,1.9699624430804292,-0.09491007637762323,-0.15403712943918216,-1.4539572351888341,0.2410218673744024
0.28520071038671657,-0.6057304340886758,-2.6464641136010703,0.1158891457132923,1.6806076891308654,1.2242706192959816,-0.8953098918179675,-0.8301434776877478
-0.7525226933075874,0.3421500454982696,1.5744787184295654,0.4305783809155308,1.7666574516431068,-1.3508875764729067,0.13744033624327368,-0.13405044315523768
0.26434678041054543,-0.009572653064934808,1.0037172715812919,0.7255415625648508,1.555838247953752,-0.48789633668071525,-0.1374431990651943,1.1991975089226508
0.06446729095591691,1.685399914870298,0.6138305164196626,-0.4670424794540501,-1.675843628344888,-0.18722431738971648,0.9246230135296851,-0.7202075956486966
-1.0796704846598497,1.0813993996283398,1.521191667184862,0.8781681534412287,0.8742524213907364,-0.1516810408353161,0.26487488081606064,0.029234591630799715
-0.060838739743013424,-0.6178037609919701,-0.9300724313915115,-0.9065454298114601,0.11220990839039836,0.40031484409533036,0.9167881856957972,0.31084866530088223
-0.39592086721074593,-0.5699719201612143,-0.1959775186336462,-1.0121049807862172,0.20544087246866632,-0.2630049537803176,0.27472924008494937,-0.6092959688120628
-0.19798304254248236,-0.7087424651392454,0.07024143109328518,-1.2494385557077812,-1.251461226406353,0.5694990956469711,0.43017353819290255,-1.6356400313637594
0.5858864210109549,0.08445163950621166,0.16243263057277824,-0.6554250327667616,0.7450834945241324,0.4293844004215291,-0.023359163663343386,0.783745106493903
0.40309467852681374,2.124151365932986,-0.8678316933655534,0.9032401293258392,-0.4815995871597029,-0.20783545327989586,-0.42173720278532884,0.9499070831998543
-1.016874664048993,-0.817042333278165,0.21722810339790344,-0.5637637751528285,-0.7233743536773791,0.09950922290403397,-1.6723534327692617,0.7520572784225231
0.7875064084975142,-0.8669787485346285,-0.5200967813328057,0.6937330770436765,-0.7673390204244156,0.6920324172250825,2.5520387268097644,0.06524432214085239
-0.9720276721091871,-1.1264560206777972,0.30994054644764946,-1.8194882266825751,0.23693719840459396,-1.930593509367029,-0.6359238643292043,0.10811793607352424
1.7521725173335525,-2.823382595426764,0.5841883486941561,0.4009871390655828,-0.8454455640458699,0.5133999994171548,-0.4165806055898819,1.5580125568173517
-2.2864653390458436,0.11929063361308179,-0.1648308039416893,0.8928213238803226,0.323173740149334,-1.8255937963217712,-0.678105523169736,-1.5778516784024206
-1.9118759004608181,-0.24173829714548337,-0.16492629593945182,-0.30000663136199085,-1.1122463560711338,-0.23086222458846348,-1.3536326704035064,0.3538535838595623
0.02219238684134737,-0.993612510952017,-0.7377961545856531,0.91476021870058,0.785755216714486,0.3106306317156442,-1.1683093056914857,-0.5302754903430108
0.04791332966271656,0.11062452892465399,1.6728849028130603,-0.3836382526146879,-1.4635047299332498,1.3411020211534328,0.9142344500589842,-0.4679659353842707
-2.069746980203841,-1.5414073183446524,-1.0021053553476813,0.17432532472450532,-0.1934609609948298,0.25567395354497224,-0.23249147671084988,-2.0334379253337684
-1.0788039159563265,-1.3474949326342323,-0.6353946002946079,-0.3753507142089904,0.8155159649178129,-0.34734733095079257,1.7486999813403705,0.9083652466031773
-1.8691699364942498,0.11445860697854966,0.5652070885374036,-0.29553607980013347,-1.0682181659119845,0.2582365352199252,0.24913191416463254,0.2616681758594991
-0.8103664239454448,-0.28039683385138386,-0.11094856530189945,0.44513947968769824,-0.8868092473693308,-0.3997113183520765,-0.3522375132779595,0.7477223949729253
-0.7236883977619339,-0.8979963183629132,-0.2048581459284492,-2.5257953707437655,-0.3032088387725884,0.5035593776899175,-0.004584895016482859,1.1892583259044165
-0.32965392416605716,0.549176247524165,-1.800453750425061,-0.8196071523977696,-0.5214214872041912,-2.0738926486873317,1.2064720267502587,-1.3594992573320923
0.41357348911295894,0.49466631573519043,0.4580609806791531,-0.32226998328264117,-0.12773731585902998,-0.45107627167947384,0.10317752325972153,1.143669952399579
0.7822246959132105,-0.7164305843795257,-0.6263758068810843,-3.1187345145621035,0.0843607452208543,-0.20688195792320271,-0.6179355812493094,-0.4908615145655283
-0.43617907336566597,0.5240411176461439,1.168352970102096,-1.4293051332715558,-0.34780699535625387,-2.180331640157352,1.5343706747291193,-1.439767041514436
2.478528692076409,0.10434920301888198,-0.3117448218753213,0.7273690102890582,-0.5306591412858856,-0.4237185124611301,0.956574516085872,1.5183500812661155
-0.5326957834839481,-0.9920671671167587,1.0027165613253646,-0.7327274122302914,0.8756784688172695,0.1754087913167076,1.0352734415670732,0.9261453911535166
-0.42313773186445275,0.1692276693411174,0.27350182379424715,-0.6089695050904386,-0.09313177788378936,-1.1574447378452195,0.4483988332338392,-0.012693368223038277
1.1444605050284005,-0.47718773872142545,-0.4152777835953765,1.811016715664652,-1.2329940734389853,0.8323279185740453,1.3811050214527665,1.5415319213838032
-0.2582949268295313,0.2790037096781626,-0.10525380599411052,-0.9188044197811411,-1.7590443120603083,1.0402409633131489,1.924046124324869,0.1347229002448306
-0.7371136964030265,0.46477390933008317,-1.3251306152164584,-1.5178434785367447,-0.6119348745502124,0.2698894235143102,1.137733088834241,0.7658463161623763
-0.7920483500353892,-0.6372211165672876,-1.0765526107351358,-0.36920847978467713,-2.309550157792676,0.6384064278969237,-1.4071687111764375,0.19866495714943885
0.7427781013869286,-0.07893125916219493,-1.6293546375738974,2.2470863336589635,0.2829872937345325,0.2480398506076323,-0.3650075321736181,-0.4912312647103006
-0.8992675670944041,0.649733553975175,0.04368112234263274,-1.1467885155562958,0.10725984160480637,0.8098679917949478,-0.9919400839352774,0.18274578721979798
-1.018827093937706,-0.16018177115306154,0.9176346574568338,-0.16191844656236998,1.9687108652986771,-0.018194039599106065,0.23925922813534875,-2.0917094944850745
0.7181802964319915,0.6585641715440947,-0.9891392466922453,0.8070822668979308,0.7070401284203708,-0.7917950249113448,1.9213840193135021,-0.9171121125369828
0.09917543125356894,0.19966941860586182,0.006237656552847301,-0.4943268795898985,0.2981439560562635,0.7862424995943637,0.6161685093409862,-0.4481844090250757
1.791777510866496,0.16930361848668984,-0.4654219466159365,-0.5118923067521188,1.4482020173193015,0.06329867184174336,-0.13167145290798377,0.921805448269508
1.4792439866322973,-1.8497752006897563,-1.504511530053955,1.9729146696896454,1.666616876298247,-0.04341516029152873,1.2324129596307267,-0.5585523551599634
-1.443136014967898,0.6276381673717047,0.935847629533274,-1.2635200801351594,-0.8703577047470622,-2.461424789566772,-1.1473929992773766,1.0597427382113382
-0.6931415730122781,-0.6731197579121888,0.492911707145781,1.2621075869479732,-1.089234418789293,1.5425692524297474,0.46247611135711564,0.7761271139978482
0.5400386930731309,-0.14948854424947486,-1.323909211749159,0.09304994491950111,-1.0534562200082076,-0.5638194870626315,0.012141617465228542,-1.0867553065429292
-1.0615390246003937,-0.7377318110268493,0.21269965883413197,-1.539934084064036,-1.8499283407497968,1.843392878499848,0.6704056431687591,-0.7626493412214961
-2.4019785701774894,0.3238394832591829,0.9697488731214343,0.5824623308681169,0.3001098989564022,-0.2394754883848483,-0.783230869367486,0.26314837569577715
1.5409748842426674,0.22818119197831746,-0.6808288804671824,1.725430703375386,1.080732327162308,-1.1182821558936347,-0.71065072418469,1.7465469494547305
-0.1672149839392761,-0.6931310113203353,-0.6505756312008907,-1.914266385987547,1.119840526359074,-0.31642335685634876,-2.170285241770285,0.7448407524077663
-1.5454882034117756,-0.7326523365353965,0.5429552693825163,-0.5748569701577927,0.3311735002414223,0.3311154917242376,-0.895026695642838,0.11797846279094003
1.3250410367710035,1.1653640825514058,0.24230590654437686,-0.7991919383154739,1.2868378777169256,-0.08212148970228665,0.5337901043539381,-0.4339646955780122
0.4156680703831912,0.44548385584658606,-0.8860694763007045,0.5343078327398515,-0.1839946689499694,-0.7287996046491053,0.9907813930252597,-0.06659115435465787
0.07786910515757384,1.5924903918755002,0.764948701896842,1.762942466272716,-0.6139145633269795,1.075216549462419,1.2065205274356336,-1.6266581699168274
1.364481598066053,0.7356289743039325,0.3496152422345272,-0.7958776205937069,0.7259868333367591,-0.9271670695901407,0.05352234210912889,0.6252369279274846
-0.34445450728863214,-1.4798774453230807,1.3901343912682205,-0.18941270879093908,0.4947785781007779,-0.361843101280409,-0.6741601902874172,-0.9088825276986766
0.6027259799254949,-1.23800294017375,1.686038340322726,-0.09732265956782594,1.2752470873822264,0.9059310549691175,-0.34311530023342734,-1.1613097484379347
-1.815290814839624,1.3085368061055875,1.675837536638902,-0.04706074731222434,0.19455004629549755,-0.2702560279360903,0.5858450842936788,0.2757142363122312
-0.09218141940170099,-1.2552071650091576,0.9852121583997661,-1.0289645373744047,0.14725991359831628,1.4372011582984519,2.684777787186278,2.191972717256724
2.2557096261185396,-0.30453075291430887,-1.40069995640425,0.5688062488397038,-1.3170006274679111,0.045936873503083286,-1.097575433416783,2.4011074368852467
-0.07019755242863662,-0.37284721271199417,-0.1295690580502519,0.08933346232214194,1.1058584230718573,0.33729477052411333,-1.1100277352128496,2.577059167770699
-0.13049384368761863,-0.1359921244035732,-0.48531064173878147,0.12462087982101144,-1.8362364478630584,-1.3503426544647996,-1.1485316057772477,-0.16427303929311857
-2.7422489219215134,0.44421593290022665,0.62314193498898,-0.05669086384602014,-0.711086810798325,-1.6821335196608473,1.7716089827151542,0.5937135485745033
0.8149943710090781,1.724909603811241,0.47558770540808387,-0.4521771476313614,1.0744937996259725,0.6657541652847747,0.30737291499744224,-0.638789752772924
-0.267786638177075,0.25289146509267163,-0.7300547290140151,-0.09145958305846341,1.3187145712801642,1.8387093829882348,0.25229789133757563,-0.23600329715648094
-1.0137533821515616,-0.38148426057596346,0.6143156379188489,0.22190219891602198,-0.2517862587033095,-0.252620891481234,-0.3522554217340478,0.8751474039375836
-1.4102206747892585,-0.13353123361303026,-0.09501824987163213,-1.4112572391269358,0.8884710585364398,1.624107493840311,-0.7833415955765894,-0.7205523103109283
0.000375867042664709,-1.157988709102223,0.6714805111758751,-0.4629006911971669,0.06499107493840156,-0.202090432723768,-0.823667747097123,-1.6938604896561675
0.5499553499285941,-0.5243876497770119,0.4469490726152004,-0.2003313792955638,0.8419428261828625,-1.6495059356269486,-0.9945611697031693,0.7758112805275881
0.5425411197828759,-1.0478289845733557,-0.04926634925359216,-1.9680812099336882,-0.29342525576137385,-0.5663082333716025,-1.7791531658472495,-0.6256233356236928
-0.2102738037246784,-0.8683381671791122,-1.2186951325111628,0.18260356921790447,1.4384742340299093,-0.4782620739402967,-0.38703328467102305,-0.2387770438235306
1.0072424262995443,-1.9800664528997007,-0.10501113113415045,-0.9802102332042264,0.20434798272862362,-0.24438370652943317,0.7570376200412402,-0.4659864403138844
-1.5875144714136087,-1.0187910255484363,-1.388728745709121,0.02353883079397184,-0.4056943387955742,-1.5255512851173942,-0.6288779763563802,1.039766015412875
-1.143923170146911,-0.04892914307176509,1.5487269342130316,1.064401861406978,-0.6782808191462223,-0.6813940329115875,0.5719033614478118,0.3164707673608406
0.9061491699600144,-0.17185941559229811,-0.0067052487843647915,-0.8407917866708126,2.0736897492962996,0.6892033855920646,-0.08664540241508721,1.1688578281174191
-0.13874375988013227,1.5827134662565572,0.9031874565443923,-1.089138224315914,-1.957256764862584,-0.34267587920103904,0.5059149531317426,0.4098343987995293
-2.775809751507046,1.495434508045418,0.3188478385344693,1.2961386899182186,0.97571872001805,0.4481995953139975,-0.6374148679481292,1.8044491226638202
-2.0024847929408374,0.4737047618046276,-1.7185401337127637,-1.307103853693462,0.8756340450039503,0.9446621939448641,-0.4873406286403811,-0.2787085061672192
0.017564062053049286,2.4125082809784355,-0.5345184759416752,1.01831912558295,-0.24355768714399076,-1.2334732727930626,0.04797501098401657,0.46939993082061915
-0.6447955489146387,-0.13802742995421402,-0.7194164390261941,0.8014211539971968,-2.290166576005763,0.3164781303537579,0.2797373410279805,0.44813185016243184
-0.4550534271404398,-0.2588458588124591,0.7643808888226841,-0.5715689758362332,-0.49499944275765106,-0.894014095085658,-0.8453309352539581,-0.4492074732922536
-1.2077150822025704,-0.28003298116068076,-0.9779944530993815,-1.7122892150807272,1.4918658353899525,0.5088197761146616,0.3464542687508734,1.3855269163427115
1.952406428542134,0.4400098515021797,1.1702713192101943,1.1833904225302676,-0.3035425124840039,0.5944851601214779,-0.019808362434791837,-0.39962367637467827
1.0355031414227827,-0.9564602410137867,1.2065583611372706,1.1985687580251665,-1.4161382761858536,-0.4444677136566062,1.149354323050694,-1.6355745624582194
1.99176111425714,-0.5619408402862639,0.4051116385489966,0.9387385455441635,0.7737204290459221,-0.38197802558661814,-0.5846692211995124,-0.6144713395250802
-0.3720946913247459,-0.20592498480520605,1.1583565717372706,-1.437708930786173,-0.04599058558547754,-1.1662495918141322,-1.590872228641772,0.03797639148514872
0.1452463399077074,-0.24679051197808524,0.8129584877150031,-1.9352386691272045,0.7451635940553906,-1.0719661120405697,0.32897041728651794,0.8279587859844376
-2.2814407935958676,1.035502602411275,1.6738458397673526,-0.09620348793763152,-0.006762892672297239,0.46228836697418446,-0.2035296488851216,-0.4442463062676145
0.5650143300451068,-0.6104403017116845,-0.9628678032078501,-0.5821700480957617,0.6781246564309372,0.5946685931893042,1.4121934893814925,0.2903794818625047
-0.35536759041447197,1.2939179919192414,-2.115307914305782,1.8593889753820654,-0.20060840944055,0.07038160859015387,-0.13218694171665182,-0.7520372387219779
0.40030651077920965,0.1978876310482025,-0.41698302697021583,1.0632953305726982,1.1652876972601816,-0.424164534380472,0.6048073415996181,-0.03759715964493518
0.3713248792877584,1.5460520595224814,-0.9008717684812113,-0.0026280991571262335,-0.1469036983125425,-0.07962456631363538,-1.0269748707442328,-0.7470672223551894
0.0843184164128017,-0.12086189579243485,-0.019735095798208896,-0.5245142662071063,-2.16083413476411,0.3039104122151433,-1.1313531586586039,-1.493852043432921
0.7505846319954341,0.05258460027454897,-0.5287684354031146,-1.197862716120795,-0.9147610233183163,-0.6264158075237751,0.7839907493601092,-0.872276290849815
0.0841976030932752,-0.23241397740210176,0.7190052848269296,-0.21426094872847853,1.737831722109992,-0.3857085783345487,-1.1264552988826764,0.21958119615202956
-0.6358056227827869,0.35379701700438954,0.372245655379617,0.2610799561228866,-0.9638595825523448,-1.4137437317908985,1.7099543100552248,0.07258908156105727
0.21816075594315507,2.437958609160713,-1.772427640785763,-1.0908123050264418,-0.5847034486752406,0.9738781408596762,0.6507833419116997,0.15876928992111214
-1.851957837584693,0.5956596567805176,-0.5926350686338049,0.1290778849091427,-0.5850397861370545,-0.1794665720615203,2.4002469996156663,0.08741849659022828
-1.694446610590324,-0.8991970673667158,-0.3194398911924822,0.5539360066144496,-1.5457716565784103,0.4942383370433079,0.3956908584289034,1.266543008675965
1.071819544887883,1.6582321308224781,-0.35935346689010705,-0.6036869641442677,0.15916499602586767,0.4797618949097836,-0.3783322241615277,0.1818641314188927
0.1752870994110783,1.232553864355919,-0.04013810898950036,1.1090098701882747,-1.9478977356072706,0.26600661615444926,0.530688716924636,-1.3592966657738188
0.9226155930074147,-0.6106835522455557,-0.20892858180381782,-0.13756958343994802,1.213375885125895,-0.7257073707402637,0.5592322208578576,0.8596673951053209
0.877497412888789,-1.7573050155933883,-1.3631144988090116,0.8675113958648408,-0.3861719781639598,0.4103860221616927,0.6113278435079331,0.6146133791023809
-0.06411928340402205,0.4702646756119752,-0.6150250323282702,0.6071998093690553,0.9106514089093733,0.9430021713355108,0.44998846313819774,1.4773892559765933
-1.0560355463577777,-0.10763685919576718,-0.5986717465894722,0.7980928752489566,0.6141115113945793,0.2432279636479597,-0.10123666169773739,-0.9984455861010201
-0.10808615103040549,-1.3651989627199859,0.06733947207304808,-0.38537884479201295,-1.6156397256908221,-1.4943616508627757,-1.209674712951168,0.9828382076236882
1.047028739030314,-0.9712962646858107,-0.8022729031650162,-1.695169905327574,0.30219180705110277,0.24398262922231106,-1.5881178920238521,-0.13199637365209538
0.5575708220251521,-1.0983679672818918,0.8040792364576697,-0.20888505984039238,2.103950356055364,-1.8884230019763604,-0.9544386207897159,0.6926856920384039
0.38429212675529634,-2.4763640518942744,-0.6285028087541386,0.20953465615550027,0.10259613042722536,0.06236811759879019,0.3738272518897741,0.6315888799992555
-2.1972687091121403,0.14398185707587982,-0.9089416510400058,-1.3520956238836777,1.2883605595083172,-0.4567644552167416,-1.2452344521885848,-0.14012960618278275
0.21845282348125714,1.150630199187871,-0.21956487753685522,-0.9687574227339759,0.567998706769193,1.2216247416213215,0.7711530694021517,0.4348931024495916
-0.18187273791765116,1.2396888832946296,-0.8400175014362791,0.8371803889250602,-0.00876017749515398,-0.6670452023392287,0.08302139831444662,0.7624419835969659
0.1873435424439416,-0.5005403035373822,-0.13242071968480948,1.2723749273097982,-1.219585981644458,1.6214566124790828,1.4926367437664918,1.5680667089513867
-0.5900311320533563,0.7321471778659507,-0.2999708292568474,-1.4428782129504287,0.29191126966122444,1.1270807008442956,-1.3453252335161427,0.059755345769553644
1.6247705722516488,1.9294134832699859,-0.27270042181885934,-0.33038197268938085,-0.22674932622079752,0.4510169241201196,-0.5781291020436122,0.072634881758896
1.1961816493367607,-0.663175782165196,1.2146451454994454,-0.6251941295567939,-0.3760175136564308,-0.44136822034608475,-1.454199508724715,0.8361132684239032
-0.025085037931953647,0.7492356822013383,1.563933061501239,-0.2494042084298062,-0.04543046965093666,1.5660508459823592,0.7064993219792227,1.4176294046345996
-1.1310183321489786,-0.3337835325341667,1.348131549645664,1.6128630019087982,0.7071116665187063,0.16371465618267395,-0.05230835113573193,-0.9388252485846982
-0.84173842087759,1.2005024578837293,0.28187206386189434,0.11574797956546248,1.1344057895727708,0.48683751677034753,-0.8974017119577662,1.151851936693485
-1.3547030080553866,0.5009135722494846,1.377592745978584,1.5300431692273295,0.7598509066385067,0.19670158283298858,-2.381490520484247,1.6915213904715318
-1.6687529007172959,1.420239842865949,-1.1021804434947893,-0.36410539953890997,1.8374837856188098,0.46588707689700887,-0.772154723137434,0.023071584321689143
-0.8607634200816385,-1.308530423096059,-1.252871926654127,-2.0003521554946992,-0.12505180497639304,1.5559699588646962,1.2626694903524123,0.0005670309395712127
-0.269035664980927,-0.8682516950550369,0.3195678164403019,2.47713655990867,0.11125865151348024,-0.39559935289737364,-0.4811645369373508,-0.6799385947202036
1.724787303264368,-1.3493193151160614,-1.1852237056438584,-1.3036076617184384,1.013712870459808,-0.44140858826604484,0.7867650851363592,-0.7056512306687944
0.009455822786790294,-0.11801784313264034,-1.0015463851580686,-0.04579163764827792,0.6850259649161047,-1.095603310417561,0.30110319650372347,0.3222008474599618
0.557491800676562,2.13770710703411,-0.44101819721837837,-0.9701644146052053,0.7332996258110928,0.6482451008413633,-2.353135002049021,1.3201238760578275
-0.1898205089739502,0.4922332830128915,-0.25700478495059104,0.3698700052114447,-0.020410351698322286,0.23445941545439183,1.5531568267295233,1.434670534809688
1.3979307124837514,-3.1721177936397345,0.35785600312714944,0.14143827113293986,0.550972573145388,2.960614929878906,0.4888800710833482,0.33518608036643766
-0.6004803720951023,-2.54312043960031,0.5294303090004435,-0.2551164557256086,0.6037659268430671,2.214345851972256,1.6138370870457006,-0.9191700969510688
0.061390837739536464,-1.2783384881985744,-1.2340272420512597,0.6319770511910219,0.38093771131564613,0.18070715522646608,1.367439968095524,-0.8206879085949972
-0.7086137750119299,1.62085194904287,0.8662146920292161,-0.2805524768278114,-0.3108495679843668,0.04506068632876574,0.29118134805294166,-2.1211697298110064
-0.5048543151796522,0.6185358279672339,-0.16424531764984188,-0.46569620674523393,2.365999269943552,-0.549533391204312,-0.13912584671575412,-0.9054847971689535
1.067738004526938,-0.6028589300216748,1.7839838031749728,0.18360671811669366,-0.9281740852963374,-0.5223948567811298,-0.3441809848720674,0.47647253569523046
-0.1502572499110317,-0.18576482163756156,1.0638207928258911,-0.7270723184201591,-0.32919549357491035,-2.0589577500121075,0.42493558491552874,0.530836773141401
-0.4417681581784726,1.7009935363732618,0.08954362639109333,0.20439075920710859,-0.42651708191484294,-1.1024892549457823,-0.9049797041495992,0.2741756798701118
2.34598025029664,-0.4792224723457076,-1.8930699311462642,0.14991267857889184,-0.2314866872813588,0.7029055495590992,0.7240429388596679,-0.5424379544627326
0.6944369640405282,0.5217684238499835,1.1900284981232212,-1.1930283763316394,0.6742971862269003,-0.9613886475175084,-0.4122075770654746,-0.6437663129944373
0.9748001681734069,-1.7086916360577817,-0.27040058195384575,-1.1418615555535059,-0.6209933254708614,-0.5238462930646997,-1.1740581924972746,-0.13585729784831463
0.3015964568461209,0.49263387611745163,-1.1273962832565698,0.057295347090187285,-1.409140674044233,0.9365069742055718,-0.6150919673852999,-0.5289353894779653
-1.4184732794963295,1.3267074366556841,1.8820664650195431,0.5062186780266612,-0.0902113657664743,-1.0464239551477985,0.8478739411821214,-0.3425912075043454
-0.1874768557327163,0.8926816762992704,-0.8542931830869498,-1.0890215134472585,0.03807406537301443,0.07601128652437086,1.2452692236382177,-0.0334627230186762
0.0401398655992783,1.029063341275459,2.1397724781064222,-0.889352833210775,0.8904546101055596,1.91068843849758,0.12478335137808665,1.3406106683968504
-0.25657173230842567,-0.3973311858249833,-0.021702823491765236,1.155660991240268,-0.8513533534118345,0.5657582143807098,1.6022338934250218,0.4195521849034791
0.6305082778411816,0.364748167299532,1.3623153148679434,-0.003782354159616214,0.5763963034620471,-1.1992421512556206,0.6813979157883827,0.9869406640373946
0.30958491879915173,-0.8077632545372287,1.9927268336232167,-0.8183233018344367,0.7059985065607052,-0.9961703455921502,-0.3700827721905612,1.1550797724934163
0.011593933846301524,0.28871388958680905,-0.6642230808646,0.15526813878683596,-0.007473994475106371,2.8179893422682447,-1.5803682554248695,0.870242973071816
-0.9967745142217609,-0.5878983806086227,-0.8995280418150161,-0.9295284525567926,-0.049075697064159804,0.46234211607273595,0.8058769565148457,0.7547745225353946
-1.5264531141955862,-0.4026589780656769,-0.09606945355274625,1.3855516281663232,0.07022311393306081,1.1629765338425624,-0.09137569765897544,0.910317324629906
0.35550097761138955,0.3721260304058686,0.15088576725817307,-0.6827163444391894,2.0021633999101143,0.25526263286401957,-0.19770357674207373,0.9594500190644502
1.2420513105977673,-0.5636537747955965,-0.20770048928650905,-0.2202004212341277,2.075719334444365,1.4056684071429284,0.0848155184721869,-0.1472034281935299
0.4753015723501351,0.6084909362877858,-0.9361792765912376,0.14462808046077522,1.2180157167609718,2.1464191175184473,-0.7838854235843166,0.05066359864536716
1.0874132820699618,1.253587907704247,-1.9874593716631574,-0.7580515453194329,-0.6782386791410461,0.21393104945850114,0.13711731391221718,0.5895837537338281
-0.0971124187897854,1.0541313408582096,-1.0029662847910716,-1.9450952295032056,-0.33268934756518315,-0.5579212322790822,-1.6395253686700346,1.0126681953013406
-0.32667151874929823,0.651514333342238,1.1111870122816965,-0.7086762756092685,-0.8312207606502854,1.0314632393248209,-0.9701333379002431,-1.1678595962421512
-0.8935674930935911,-0.20776807110634943,0.4310683454669506,-0.7009637682041867,-0.058424708668699324,1.0933107635244872,-1.4151187494410145,-0.08317592411507595
2.1689791908232867,-0.14828091351978248,3.396983998533781,-3.105082626767466,-0.36322430353994617,0.963806848000839,-1.0793625281987416,-0.150403838323268
0.3013604005913779,-0.22529510826489524,0.6129856632934284,0.19436178109766708,0.007789665419326065,1.2013287401868458,-0.633514122137119,0.566502596995653
-0.8683640385530692,-2.012129546448726,0.5160956922718168,2.4130035080488894,0.1716137915503055,1.1047400629051267,0.06215530654353002,-0.00852618854458485
-0.7128998058646883,0.5918790084807389,1.2903731079763325,-0.11883137372167013,0.6885820965211225,-0.7321008129368167,1.364158609849185,0.47423357058656973
0.14399415185002384,0.7063964185764139,0.023250159782250784,0.7866392179042195,-0.3994339986553914,0.05246914317540456,-0.1772187514736562,1.3237760426417733
-0.188897615994287,0.5250822430762089,-2.3069947901246057,0.055030151038895934,-2.7593183029636346,0.2170365473168101,-0.5400304720908248,-0.9048791575009072
-0.15245417611624704,2.035229007639711,1.0255081334239127,1.2796100344215569,-1.1084188660496577,-0.18370357998220807,-0.29352309771197066,-0.8175849334308145
0.7118425547667941,0.6762366703960438,-2.00937879074053,0.7799158784825715,-0.08065277355210913,-0.30555744001543544,-2.307298291827393,1.2991984098307128
2.13884732237202,0.7056003984274105,-0.6620388704709221,1.6343190377885106,0.4782616542791378,2.8446746241696057,1.1645177973784142,1.0486835200149534
-0.9216006776398135,-1.4890956192721827,0.5467405355756214,0.946286950994136,0.6558197729191384,0.3831330862023813,1.025283584290317,-0.32523276753905433
-1.0411795140707298,-0.20097069566891584,-0.784874587726998,0.6755494880429443,-1.4754699279313532,0.13817354166755982,0.5236846980879146,2.098872831447878
0.9660715297975547,-1.79898716312257,-0.8846323345071271,0.23980006819973657,-0.7390228625688146,0.08341537030351737,-0.08941292994214714,-1.1053753402814945
-0.012073685492186523,1.799920273045585,1.4074732304928586,0.4346264929698311,0.34298527101432214,-0.7752205541960662,0.977998469029809,-0.27145321234533853
0.8423176665930334,-0.8455379942043544,1.8110509172524563,0.9334423270779633,1.0725123320596601,0.7640152240879583,-0.9916112852224853,-0.5313285114918747
-0.7203533277320807,-0.30605561141725135,0.7939123067164804,-0.27101350838410543,0.719137191308732,-0.07980954803829597,0.07613085790660043,1.2335164185421075
-0.16115329019840594,1.4312981203313453,-1.5292465388038916,0.013916125547538162,0.9871943067988026,-0.10295105273174515,0.643892315032961,0.14912802389600133
-0.32979095942041287,0.3768445169819192,0.5881401484041562,0.5677951633480781,0.6494095750807776,-0.8573725955914614,0.6544273397123427,0.3909678346697811
-0.42660227640158865,-0.041180499199938124,0.995132348291896,-0.7724752051898944,-1.8503634080430653,-0.4793911272687314,-1.258857006669582,0.6298269759564168
0.29151135703533404,0.024479801921419308,0.33824711251246303,-0.07768804713406993,1.9618443529949272,-1.3755425069118272,-0.7414650415335226,0.2797716476220042
-0.1160545522146359,-1.3383433351060976,-0.26175887387107233,-0.9130875991948527,-0.7755264416447415,-0.3681491099853959,0.9276404450688497,0.3143065583586336
0.4814579268728399,-0.9377718249558893,0.32615708058758935,1.1207177328576854,-1.3455965408185935,-0.0572101980612875,-1.2678522151125804,-1.4583390064043698
-0.2517683445629036,-0.11370045137886949,-1.3462997760502167,-0.10537362888579646,-0.8664495972498519,0.8362743148964349,-0.9895633218424459,-0.7232785821098586
-0.42342398002228393,-0.8028762760878588,-0.7766321111364535,-1.0707849719167937,0.26337011152301365,0.8954561828919594,0.2782878539063458,0.7152906454221807
0.8763673459156445,-1.107071967239743,-0.6998471491370095,-0.8742959615370166,-1.4078492129625806,0.3612479857579687,0.16375610417483358,2.3262646638313784
0.03510119702521752,-1.6907012897120306,-0.2710820538579376,0.7462480813509694,-1.478061335630268,0.17986261854737867,-0.2587713600753622,0.023222431797160523
0.7671306570676487,-0.3419113367831124,0.6155463858158234,0.47944470175628023,0.46985385669779794,0.622793353611252,0.17829131132715384,0.4664154841354085
-0.9612015616478474,-0.5017443671127063,0.8981406035043711,0.15396466675690212,1.7942558974455798,-0.6839070713679264,-1.4944090841140587,-1.270825796813334
0.45716059604186665,1.9848083232331293,0.06295174567902326,1.4911921648725945,0.8928304873563045,-0.09869248257920114,-0.9619824159084598,-0.7099730104239762
-0.12260421652534895,-1.0032899960518404,-1.1670378785218412,0.17937664030747275,-0.719509845031061,-0.06706697063634806,-0.1442457861757099,-1.5542103410801735
-0.6398717377178351,0.611486079383876,0.6467763322191337,0.07284494100239386,-0.08489198505603043,0.029361907459793227,0.39498260094631776,0.22702767346859926
-1.3815326550176155,-0.1701305629064274,0.5789189644292957,-0.3931938592648993,0.7521028013076353,-0.06135465398988471,-0.7777372008712745,1.0299397647401742
-0.18219459890543258,-0.9739512980795898,0.9706942739361057,-0.0005261820865393064,-0.3263568487284108,1.2285164476970367,-1.0744191679637292,0.6807308149040994
2.134127287506887,-0.6474984885742492,0.8958254947370184,1.4395482693124633,1.652772276449138,0.3138444788674596,-0.4376126992466883,0.7692056926337669
-0.18960465354763897,0.31074209557387683,1.4867571165919689,-1.5757082238373115,2.1642990933393134,0.4668518450585752,0.22369655674024005,-0.3839594652753514
0.22313774789516683,-0.4322256396474303,-1.4093435278685766,0.43083780462938515,0.7371525823708398,-1.0611798247557993,-0.5155997071971465,-1.2006109438415677
-0.9043100968126149,0.6676474674332302,-0.9599442564337797,-0.31660039151153907,0.15239337522121593,1.5491143225925537,0.15857717671878643,0.5052388299457081
1.0950706037875688,-0.050889205821197235,-0.9152592903981913,-0.15832346757291477,1.0017163439788601,0.7666028389703493,-1.3446760242274762,-0.7754531814720178
0.8474416118001666,-1.2996871113269546,-0.4247052838743262,0.7009409481078344,1.237194471035682,1.0455922863668687,0.04232406906376343,-0.48003302706425716
0.1939122658977204,-0.7527247008516137,-1.1510912735980632,0.49819421680353365,-0.49123571505272917,0.5947953054933838,0.9391715263044805,-1.278612417453665
-0.07252599751765339,-1.0591192912114116,-0.1589010467077931,0.4454961065074085,-1.5194438303620788,0.8299554270103432,-2.2570842621116354,-1.506959631787743
1.4651413576229297,0.8135823167467936,0.07589859466809111,-0.389884425698002,-0.35462077082148974,-1.307372692655181,-0.293591416181265,0.9739845350709205
1.4065366021299557,0.07578579318396493,-0.2692620139505989,1.4118550080218826,2.084271550334582,1.9072082421216683,-1.9399843727804433,1.1625597342492004
1.6892645739844157,1.1345135979850698,-0.4250911561765362,-0.17209598481429744,-0.1755640221707156,-1.51154603494746,1.4003406207068356,0.6843432884390384
0.5355074943229529,2.209270971309627,-0.09149374435363047,0.5507066046193204,0.7553119817434168,-0.08394597650618872,-1.0349071316885061,-0.14242695221399596
-1.0107414563871404,2.3781843114367,-0.17401381884241918,1.378688171624651,1.459032266943466,0.7780309063568066,-0.03259706019077895,-0.682831914230014
-1.9123507107764943,0.15356195463882258,-1.0391972205385127,2.1158424491563146,-0.695241512101029,-1.7425515815313843,-1.004021915432834,-0.9395845851553359
0.27023869460604777,0.11542726483487714,-0.8084604614763052,-1.6772205255436181,0.8286826872119593,-2.0320384101062485,-2.0958488940226383,0.22787461673152484
-1.1101261801654176,1.1772744140427231,0.08441905072101491,-1.175850484948297,-0.385893939636218,0.9741241499235052,-0.3027292276357421,0.38815140172329937
0.8647445676502457,2.3286332125698936,0.32157750769073795,-0.002671039496706868,-1.0507677423044008,-0.7708208191895567,0.23559167324970368,-0.17750991931629764
0.33964796838794115,1.617402102108702,0.7222628068831783,1.6221134334121046,-0.22658742741560922,1.894782852676276,0.26404773868312953,-2.6846445991424734
-0.8621354103483053,1.2087855035243398,0.28044701740239686,1.7001760655688383,-2.627685382789214,-0.7494112281759204,0.18283008088945768,-0.1922066116708139
0.4028814787992371,0.6030778812351744,-0.0651548060728935,0.6034313832314177,0.6792484684737097,0.2652074968838079,-1.510800768946012,-0.20031084137649946
-0.12237207288987752,-0.8645578441037998,0.03714057359233601,-1.540412060709819,-0.7366109112362516,0.955092157373683,1.0518568067208947,-0.5734701008710028
1.159086560770952,-0.021357038185899124,0.2771559662020337,0.7093748075968487,-0.5230548386274873,0.8601227742355642,-0.9405757130296345,-0.5963595613033866
-0.3782365763361268,0.29666139523195717,0.35938778887243317,0.381911694210476,-0.3054734947922549,-0.595876771444236,0.018221724052016594,1.5331236309558385
0.41220059982822127,2.3541194007568,1.6169995799585812,-0.5176979620014528,-1.4360256076954345,-1.399839509703816,1.6136871216259225,0.597737855470109
1.8744147621786322,0.6249692294635572,1.4308701113852342,-0.2363613083977129,1.9572401921397375,0.5594559470894347,1.1726055920624,0.3126526872031042
-0.8548046572623262,1.6917158472412737,-2.2479174826731545,0.12907152992182327,0.02480311120585623,-1.6750889822432884,0.12038576855878383,0.46180797289752207
0.6753714039653477,-0.23014610869850016,0.5999070275951892,0.9689963517019742,-1.0909308971549243,-0.4968608120130049,-0.4470332441425335,-1.0100107898143094
-1.3919167118257607,1.6597738466605412,1.0862659665926273,1.2494768017249345,-0.10439881495412376,-0.09179996180644563,1.1918619903600745,-1.814042463061204
-0.2709887181310745,-2.808408427844678,0.5250853204129525,-2.246886842357351,0.41569744583814733,-1.3482381209458294,1.3870984952743146,-0.5139619429338141
-1.9377245187669458,1.2277370749234076,1.5868575558406692,-0.14199261179042902,-0.3073014456407047,-0.9488132801933994,0.5476298349892331,0.5319262680787664
-1.038543629343634,-0.14859456953172775,1.6690509959395312,1.0984826783801764,-1.445566705188889,0.5239500373837991,0.8041055427584624,-0.1856489746881536
0.375440370533232,1.3997682715928077,0.31000545228118687,1.338078697136865,0.012451993242069831,1.6212243394716639,-1.3238233604734482,-1.0806466348853363
-1.435623840792793,-0.9503270458363697,-1.2740733010674574,-1.3576804162037064,-0.49803312235286934,-0.4269006145794203,0.8530131613269485,-0.48320633864386203
0.16055693600393178,-0.6827452785315202,-0.765401016983188,0.5954252555831425,0.9560322709627169,-0.9036355762137056,0.09046134826834741,1.5321263677337384
0.02846028056028766,-0.24950063223485222,-1.7842809080345132,-1.2781732858148005,-0.8377174307401587,-0.3088628413284259,-1.0124402899710696,1.4541405465067891
-1.0360921686176503,1.0229406653012465,-0.4724296328245184,0.5849285674024564,0.2007830286870769,0.31775014150603326,0.9760120888254743,0.41996892374549794
0.4648500496092141,2.255420621353769,0.25539649122810293,0.5277657523877912,-1.461769084145266,0.09611702835790026,0.4446276851524428,-0.8394695622909997
-1.2114494898682908,-1.0175391668431748,-0.29551946930409834,0.7502569372451703,-1.2272289920313217,-0.03212447170273617,-1.329765579982506,-0.4522632236410257
0.3973746028011906,-0.17497613827403777,-0.8241406922544848,2.3486683234015833,-0.6559286665386787,-0.023879829281893798,0.06733408370163212,0.0009862206197457934
-1.8005059893109459,0.9674952543053168,-1.9805221470811096,1.0362374631086282,0.5129606078540134,-1.0829859108407007,0.08981763986652765,1.5169307448914329
-0.8960408024515563,-0.828486281214076,0.33281997554640663,-0.7128392420561206,0.37433171960091827,-0.06340953545676338,-1.5897556249236573,-0.7270975189558281
-0.6118626588052041,-0.16287234134968193,1.2332226128885702,-0.9191889700070537,0.44775598203202904,-1.7326851937796675,0.5830411559107644,-0.17821702347685345
2.3656996252260014,-0.5243720977991766,0.9191310657541985,-1.4410331238168996,-0.2679177843120579,-1.0122480181997187,-0.3915273782129363,1.6743260765139718
1.650485546569862,-1.4270500540262263,0.5984954405243389,1.2540797991519466,0.2421316847681614,0.7255330208311033,1.703265560355504,1.447666735556557
-1.4057978095678385,1.010741173652812,-0.2748328508283998,-0.2940977134597954,-0.8306281890864773,-0.6192287302729954,-0.30648167071896965,0.6127525266921181
-1.7198651743674886,0.6068615041928251,-0.7462728411053917,-0.3020321892108032,1.1058798209817802,-1.5224998125600735,0.1487664353003236,1.2799828224003662
-1.3310827136960142,-0.3696920262200893,0.29698340838846277,0.8937970675537641,0.4073084138755834,0.9389081830941497,1.1866771539586298,-1.02151141968164
-0.2689184092597449,-0.9507115647322404,-0.04648096307184267,0.027513572042063714,-0.012832099055396057,0.32716977130940517,-0.05902103891532871,-0.21129622674015114
-0.6160998912943302,-1.6128386195503208,0.3671336580756095,-0.23763066538756483,-1.1351705193363404,-0.6668317843254462,-0.8732013892560201,1.5515998911954167
-0.34575670225871474,-0.5046097162099749,-0.6382792099795681,0.7377501048071312,0.7288860683023851,2.0959622391315382,0.248817009663849,1.67258205316557
1.427954097808511,1.096119198254757,-0.2860056313366118,1.7936804908792032,0.7536963697144915,0.24781931094493986,-1.228137540475799,0.6924964064867782
-0.16408118981732908,-0.4528655266736721,-0.6234476388757402,-2.1553491427919726,-0.2752740846800333,-1.3208472010055081,-2.238064997051908,-0.5265881785629127
-0.15263276476141802,1.3779948295550248,1.3424759439661726,-0.7375610331240908,0.7686089376032678,-1.1313618081858798,0.20526023391365117,0.4147987895047955
0.014599424534069398,0.5590389059866976,0.5979816027928504,0.8900383496732424,1.436758186926812,-1.4085558922788604,0.3973125362381464,1.946583815770224
0.17983529126412648,1.3384440509679392,-0.5628897845969337,-0.5214310384797219,-0.09933547487220094,-0.24759407412246354,-1.5405209511656957,0.33600631431667727
0.18158671811453322,-1.4628219260636761,0.6549711448780869,0.7408823281842654,-0.005924315121859278,-0.2367087928006266,0.9717105227362162,-0.9179753385952967
1.1183121812193,0.07314404024007062,0.48669781536500295,-1.7621987859739328,-1.2000635642971154,-0.9876546384958709,0.5715817342026903,1.0278631555597615
-0.22314469888526203,-1.7440368244472648,-0.3543639046203076,-0.4052748492333983,0.5586760525558117,2.185169514150726,-0.28966190201536074,0.8833587340468434
-0.7780723021917253,0.9983097638412596,-0.17850817320188733,-0.9875570030486552,-0.9857461405765232,0.21007985509760269,0.5109817122989746,0.5666032781315846
-1.0902946388873593,0.07394869045511714,0.6944642697231697,-0.9015666580228312,-0.5872417929408029,1.391080275816518,-1.6418232637482935,-0.7444865076008932
-0.6851538127918609,0.19736822177215282,0.345265508616678,0.8785165397344589,-0.9004963589544129,-0.11547727675051637,0.8345907314132454,-3.074863444237552
-1.129212704541336,-1.062813337646806,0.9546466828562367,-0.8233761199814328,0.39589769132754876,0.008769180578960277,0.6843885570830895,0.27780730648813234
0.003231077880920577,0.6439770292910919,-0.7633615655787463,1.7393958211320883,1.7929962304879838,-0.6608626328375049,0.5093387332304754,0.5984665025184327
-1.1256444216752832,-0.09481939414076906,-0.15576211378493449,-0.20446236064969975,-0.9236047872294286,-0.5144061082859203,1.4904815796562227,-1.4505770830804061
-2.2900496981023895,-0.25124224985512655,0.1946585881193887,0.45887738817752877,-1.1007174281153516,0.2036015650272422,-0.16969970781499427,0.4170567601139973
0.8640255891798166,1.4661468062602698,-1.7152668930032557,-2.21660992978897,-2.1512511044574696,-0.009672969219126621,0.42036142525541864,-0.4418711790398826
-0.006739766958214099,0.11506735104188262,-1.602071475870756,0.29745748510756936,-2.1066674183840988,-0.826496491670842,-1.334717070102397,-0.1828107081129013
0.02195575244367236,-0.31569780141704945,-0.2780360303863186,-0.9093384815038383,0.4490073271109005,0.32222248004983867,0.31236671809541455,1.459388867102532
0.4719999407450891,-0.09915729807555056,-1.2918032111452487,-0.35196020960981356,0.2573242455604999,-1.5747241906569136,1.6951897443142647,-0.10385397066399311
-0.7312862949623343,-1.0626778669267272,1.1325646903477682,-1.5525541822787832,-0.9214864398820976,0.1350521764859143,0.5585154301988919,0.17551855203000002
0.1414810098209314,0.5008750364400751,0.6613762856012406,0.7582571725449868,1.9553907405266158,-0.2241422771095577,-0.6679135404300318,-1.1279276592243712
0.9717424017547341,-0.5418249417462383,1.0151801720945506,0.2898948120413831,-0.6768854515477277,-1.296381951435285,2.1962210530792583,-0.21166542980825692
-1.4847359304599501,0.6412195670303195,0.5821340434593874,-0.5972076436988817,0.8823102590606602,0.290446932211553,0.8878384167713426,-1.0798825725812722
-0.1421912086784361,-1.9877938569286726,1.0061034161849653,0.3612261829289726,0.5329335527809979,1.9754351560851908,0.39899516998314,0.6850608978866481
0.400536531761952,-1.45198008419916,0.7353655169721792,-1.5459322072554407,-0.5362991685405597,2.075338396681026,1.8160514585188725,0.6188733007160998
-2.386858356425568,-2.046528920815057,0.42543515697895434,0.7704024981279648,-0.0741321074804873,-1.380045089826154,-2.1119078236098408,0.8742946291708761
-0.11019615506506121,0.7218954318157701,-0.12455153854017317,0.08388389992264833,0.0134749134024877,-0.8973636258336879,-1.3832086186098314,0.20085847589429803
0.7979806301399842,0.38320516171490543,0.8818076322183417,1.3910973874160728,1.8420706277053744,-1.5299085340504812,0.4496784296005674,0.5485365562394042
-0.10118289005161568,1.3796425858926518,0.020225276728131833,0.0004955650496346264,-0.5818341430669252,-0.2323987921908549,0.7665334195417035,-0.8295132593096013
-1.6918719767363148,1.034675431227667,0.7933095698750076,-0.03642743103065312,0.8342367540645859,-0.666729525750651,-0.9462759962435248,1.3689941512457953
2.6626191694891537,-0.599108685924961,-0.40051560617803356,1.0486815564349394,0.17919025042477113,-0.29425172927399285,-0.12003965673825867,0.3460336380150201
2.3442348000478535,1.0697601401286427,0.9398634767086602,-2.0418901271594527,1.2325624453069375,-2.014689250615519,-0.7368188039361244,-0.002308002852662448
-1.7657814870045279,0.5225149590216208,-1.3503083657066675,-1.2702205837676015,1.0234809670563079,1.1705420737755714,0.5821699724913814,0.056833677184726594
-0.36213005904397244,0.19790243493862833,-0.9012075545108615,2.4401506853518247,-0.07299149111904263,-0.11729946616816297,1.4413207025341146,0.12239075003808667
-0.17018848103305922,-0.8031894787932021,2.0737672677705223,-1.312048292052324,0.48222222622950295,1.8273704995058815,0.887623774214286,-0.35656960401667825
0.9258528336457937,1.7581041118752267,-1.5678374766253897,0.656963453303725,0.024969415784203048,0.608418480986399,1.2874203240004638,0.3597709570294499
0.5928736716153722,-0.6758327592326788,0.6576525761718071,-1.3400213672682262,-0.042944541881210295,0.1443106574117428,1.0170684071506655,1.0382985289814812
0.4262974192938658,0.41216351254218564,-0.3973332378417212,-1.2226742643544788,0.25055061187004696,1.7564570549443803,-1.0653418468340405,-0.12569231083729102
-0.1827804035256819,-1.6064093425413408,1.459381116885084,0.4227299612279822,-1.4781630442480365,0.9696448300034628,-0.5563349341110754,-0.07584074437730329
1.2811895314209623,-0.1395874445406488,-1.5265868730246244,0.30279995101821605,-0.3361505277694801,1.0774687416955993,0.10029386026510462,-1.812147703955748
1.444403573637314,0.13189469917218527,0.4303625572888518,-0.49355841524631816,-1.5520214216686639,-0.3340005746962056,0.6903165005817434,1.0869785977902329
1.272731174650145,-1.6405421993814013,2.490814807225917,-0.6432923117897644,0.23778915942747403,1.310388184605887,-1.1053832124038396,-0.20151755540659747
-0.4224571884383894,-1.2903385268743655,0.26918108450136935,0.7070505395744826,1.0119405261111707,-0.6551121885609903,0.5383024079244974,1.116966880923931
0.8770570317941753,-0.12241862923956683,0.6652402389323786,0.5173258626134802,0.8006138915872284,0.10176814196896855,-0.29397663119400197,-1.1746959030644655
-0.5055638592805379,-0.7053790770066718,-0.8021314065794035,0.494295229374117,0.2716250375435146,-2.0351241429009823,1.4563516284832665,-0.9645004478063888
0.43148608762227364,-0.26982637199321813,-0.9624996908336094,-0.6520820418008224,-0.08414102881287848,-1.0945243585810611,0.18230025515441925,-1.2271812806642133
0.454658164202026,-1.375528565044181,1.0010271175834566,1.9121457367223298,1.3126917572222063,-0.028499426788928816,0.6811512745390734,0.3372451423495261
-0.6051249694645925,-0.5052211597242587,-0.23582156027266024,-0.8061582065644873,-0.9372857311114322,-1.274841706459365,1.264928865491076,-0.2827089028112303
-0.06328051235507015,0.13487514415595156,0.8727913008050768,0.5345940828526397,0.48684139204151416,-0.8079272564553225,0.08596151252327401,0.32929301254587406
0.6597923944841246,0.44297306448203827,-1.8532818653122551,0.9083438179559588,-0.7696813421114413,-0.5488489721483365,1.832426564217649,0.9038981709957111
-0.5770866123184977,0.633199714757357,0.30739492920131706,-1.7793732987035107,0.27035141401211793,0.8980144457915826,-0.5255424058033541,1.7390895881549309
0.03411911183545586,1.500266845490658,-0.09891726027951799,0.0750387577817613,-1.964489313508513,-0.23540977223994144,0.5511584852952661,-0.8986165444954164
0.5724091482676116,0.3525779000973787,1.3953311673593327,-0.789150113641762,-1.2821125220811398,1.93070711013616,-0.30090596955743876,-1.6324472521737714
1.6862381841915228,-1.423618573580899,0.5172048984202611,1.3151822204722912,0.7275834737993235,-1.4934672767447315,-1.3288762009671773,0.6434758642549167
-0.18156807624493096,2.7321624529732764,0.5613831757439696,-0.05753532340641603,2.05643980429524,0.593626834377391,-1.4056598758592298,-2.3404489103853092
1.2922805971017552,1.0174024909982218,-0.879526807686954,0.22846464581285644,0.9869328845846199,0.32443382904890655,-0.8830934623659779,-0.5008679553046611
-0.765517620087188,0.7367935678026857,0.17143178628852887,-0.9150451989944145,-0.9275536208096846,1.0124764603644758,-0.15848903158793162,0.043788726582542875
-0.19655907126418792,-2.9871781004863673,-0.27213970218932343,-0.48136843506490334,-0.7793791736864825,0.71269362057703,0.8950085874904373,0.2774585194839622
0.6471943458233889,1.847912652573799,0.2020305766798422,-0.2717317950356772,1.1672835894756255,0.15761537076024318,0.3142703608079494,-1.0697286988501873
0.9035105310683594,1.639842990124235,0.9889381190204524,-0.6711348055227797,0.5972909404885494,0.7925781018825849,0.17611360712133423,-0.020100593328200633
2.3746821551900643,-2.2504111435413066,0.1329571875359692,0.06820873174697371,-1.8651033718382835,1.2431184422042467,-1.0407751288604767,1.1119456682893216
-1.2003764336987606,0.0605336834545175,-0.2779703227218957,2.003817776335366,-0.4638880495892084,-0.8120264949231204,0.804938724841164,-1.4466197197305577
2.311231319194119,-0.26761957268358605,-0.7874838118199768,0.3963130962941787,0.13696474912767043,-0.038539756083720685,1.004284438901226,-2.0291731033161575
-0.29007073606179595,-2.4783039563931117,0.3258744507971369,1.3598464259066383,0.39707422448734186,0.6609610568072094,1.4018084665314192,2.2202675037545863
1.3789549868505593,0.6363869305569947,-0.6240876419699972,-0.214513350806578,-1.5744465782047996,1.6085415375094856,-0.09994921688894018,0.8976883721366952
1.6828403965438734,-0.9032903529389648,-0.7560111430768628,0.06196523996477616,-1.682584334846552,0.13273376410460538,-0.5882866582221654,2.373322385433423
0.5723715624165624,0.4915170806182595,0.22414066572023245,0.8535001423683108,-0.8549889762943553,0.004131320810134175,1.565915720624625,-0.044602292250913805
-0.5938971477139064,-1.6983830828792612,-0.6123279763088281,0.6307542713107376,-0.22087461100650868,1.1427520856681592,0.07038007819624847,0.5782877008193327
-0.3818863574633866,0.6917914329009852,-1.1163886162751702,-1.1440445553020582,-0.9623241497092199,-0.4598756847943239,0.9644282160392471,0.9355309114641571
-0.9030410575060803,1.4451433936426803,0.2547144332189569,-0.19144633206198797,0.9238394309499197,0.029793572810296334,-0.698316033655198,0.15857540837287468
-1.580069998619161,1.197643917059811,0.662473981811673,-1.1150327373855107,0.3656631982282153,0.34806833006265403,0.8236957983094395,-0.2660866349989763
-0.4983124667772681,2.247131824066744,-0.4581314906344536,-0.6433434590027861,-1.0240020359103252,-0.43984576604120357,0.38657517704869176,-1.2830994166425806
-1.1334401550340116,0.22716265458278262,-0.7974261212539494,0.7018392398188017,0.29680301287112154,1.0259358427484702,-1.742569469780718,-0.28991313732057744
-0.9153972086885371,-0.625940739907122,0.7298862931247957,1.741939101894023,0.2822603155915888,-0.3267539627839503,0.06158932833179517,-0.5818425363064398
-0.2259687825213536,1.2852281021249752,0.43722926806308354,1.1455031439618646,1.6740226557620714,-1.853744154306186,1.4705744974534731,0.9453326524181678
-0.6069989541373365,-1.3233720534596858,0.9577238723277122,-0.7558839331843954,-1.3039573971922456,0.5522941568325135,1.3072257762242663,-1.2050600937700975
0.5938777236405653,0.257519614331088,1.2907137312181691,0.382143645866848,-2.1431096215439793,0.4417598931556966,-1.2470698260318622,-0.14650317461171075
-2.5979196550908026,-1.1598177547874067,0.9401263811652327,-1.171432317544638,0.3449772564005821,0.3725331644697659,0.2513470960545244,-0.7099780937520621
-0.37860406783880357,0.964625159019686,-0.2680714811240101,0.3153458925174699,-2.3177759977161396,0.10698131186580451,0.3015976265779738,0.1749382417764525
-1.2860536304288332,0.6072077728904571,1.4307923737240817,0.6074443071039693,1.6177654615850146,-0.1257764239077215,-0.7366918483737971,0.4617677507090136
0.3732035711316153,-0.5849789787049658,0.5017664819061636,-0.4763700862481419,-0.7444014799052431,0.7347387679397213,0.3471371846402168,0.04742617373756372
0.9390377044534995,1.4952502966312877,1.902922259580459,-0.3920169330131302,-0.7629182789261214,1.7575213432627508,0.5596819130123089,-1.231849917974214
-0.6201658506036418,-1.3738644812197751,-0.5180177274534452,0.5011733219430421,0.5881629448106979,-1.2126357371372332,1.1475829620327227,-1.0044337264291603
-0.28947902259018643,-2.132172681180439,0.5925032856792544,0.6160743651273182,-0.6671821727500765,-1.077037515359472,0.5275244302127513,0.7009004330464976
-1.1431342889983973,1.665713665188858,-2.7808858836117922,-0.3786305707129033,-0.9593808784194853,-0.5256549427184568,0.173487627711596,-0.0481359248766151
-0.6115998223165745,0.1835619676977132,0.9746597768237079,1.746819037562938,-0.40962541251640106,0.13916452059204482,2.0067908257460454,-0.5259337007162815
2.310003285475433,-1.418182270813223,-1.0814907991828562,-0.7493526684335229,-1.151610405440784,0.5897308861312197,-0.43172125144480705,-0.5410313103929939
0.9352516831994847,0.3090542110120801,-0.2722022387069692,0.38952770349471744,-0.6054617760493547,0.17226197392261527,-0.33094045934712596,-1.43699312412776
-1.0306211675388055,1.3858839425686054,1.100766624840876,-0.5199361494263707,0.6096484487376443,1.9317882732899887,-0.7646917266462167,-0.4620951383258832
0.2502899803350035,0.3916446900548733,0.9192414370347977,-0.5480491204660798,-1.4553174408065483,1.5575611478455558,-0.5589440947211094,-1.4381817387163844
1.24686297571144,-1.5194243691211855,-1.658641902278977,0.028013523195080464,1.5050848271560984,1.1958367254160833,0.7163943220057463,-1.5947760403660318
-0.15620654408470708,0.5083317274013979,-0.4319782931655323,0.7090520946964363,0.3016275557811444,-0.5670677863494992,-0.7762965361949954,0.9276794690515273
-0.18234530024124473,-1.1168787089586092,0.2747768218136088,-0.7656586362499521,0.6971290716650019,-0.9859818413499642,-0.5578208044736018,-2.763143197984026
-1.8965176565013369,-0.5103518141275761,-0.32986078629170335,-0.6523622906652629,-1.1387358406705783,-0.6253179185544758,-0.35771093790284364,-0.12945133775687412
-0.5151388725634147,1.309303816847496,-0.25621584000754993,-0.382518896727807,-0.5150776576703685,-1.0708203130689808,-1.0109004942565407,0.8591358525171015
-1.7944983448066676,1.371503723785267,1.478993194677487,0.3833666274335095,-0.55833323656168,-0.06260513542235666,-0.007467738213426216,0.22963910341994057
0.03173344764859386,0.6334856181568932,2.1188927095215493,0.5230237786959785,0.3255062959773809,-1.429637916032049,0.14062711860606616,-1.9567324759440945
0.3411364482109582,0.7584544603331473,-0.34486856747635836,0.19821420910374724,0.4874230049157682,0.2540147630177671,0.5121752303102856,1.069933158422902
0.14751907127428576,0.18379522615671626,-2.4378757608306265,0.7982361041260759,0.25505074571228964,-0.6159314901310247,-1.1051403920699148,-0.9648573256200336
-1.2251997603624285,0.9945060069061951,0.307849998256954,-0.38097608730428845,-0.2790783347148948,-0.6437311339339735,-1.5980238016002226,0.07346701727379482
-1.3328091013405619,-0.9042062629053906,0.15981233413995302,-1.400116056679782,0.566098827492473,0.2701488056955939,1.9942209133650344,-1.0022466013725382
-0.4162443717835711,-0.5076850344803124,-1.2292693395471985,0.9648560359987035,2.3550009200497657,-0.043374071918556266,0.9162217723644892,-1.3016493703731398
1.1327064987628803,0.2875039526648095,1.4448593292521101,-0.27505438488622674,1.1576041021462296,1.8142050358507422,-0.5031455095776873,-0.04670164435927893
0.2714673783096553,-0.6402449968558476,-0.9192254226707877,0.7939311116235085,1.332569124095817,-0.3165558165552727,0.2209963841321366,-0.42095568364556324
-0.8817986417079117,0.9395125162214564,-1.1089228483148859,0.6459971298525747,-0.2440072282817703,0.08588749025535171,0.5955221472938643,0.4088257956723113
-0.8133559288053448,0.1866832320182778,-0.5359571744516857,-0.24172912815194172,-0.45560887123529115,-1.2570370194028064,-0.11072949481929138,0.28444868547180774
0.41020975112587804,-1.512730640130768,0.12040902531636032,-1.6905778913480645,-0.5683256999682159,0.7132301882747011,-2.946739587603628,0.7728181688643306
-0.93533166328615,-0.6520217635787087,-1.710433082536688,0.4148682626276216,-0.15856279037586582,-0.2543373580184276,0.5064626928743478,-0.22938343408516468
1.0871379086282904,0.35747647236382507,-0.12114437832080749,0.6495853116449559,1.278960341703719,-0.16992300395160734,-0.09198339933959698,1.041144819908039
0.8270784639156552,0.2556009292575938,2.451899686646106,-0.7300118546712453,0.20790814605789085,-0.8470160331837255,0.19928113756511287,0.13160325539736853
-0.32377762025633267,-1.092748066239432,1.2794054541357414,1.048666099088672,0.04730545865362962,-0.6302683477823109,1.45464593615239,1.0809743388320217
-0.4030295617746714,-0.17631098255530472,0.6148177330453121,1.013262564156605,0.044907633150788925,-0.8429020179569856,-0.4034250970840651,1.3059273052184892
0.20402123975236616,-0.4182104529377661,1.6331070320001808,0.6205510198518154,-0.2439073483921832,0.7744575450983339,0.011231069090581589,-0.7924222501788217
-0.9386306350990175,0.21009406642631137,-0.9256522491079928,0.6594233766869074,0.467530454892845,-1.9920847106362596,1.189055880849256,0.6735525013103592
-1.2416417377220619,0.9420926555180262,0.1873911329306918,-1.3854928053177396,-0.48949018400401995,-0.6480599779783948,0.9447914594534734,-1.3187226983508678
-0.22288215028646374,0.7296120442083434,0.06791990501875546,-0.10402630658315394,-0.5134642360195703,0.30247638915581343,-2.207833964217467,-0.8084089571826489
1.068032667390374,-0.15816455298717286,1.2245533145138987,0.9835577057300839,-0.028582021492842783,-0.42818735235565974,1.8151742148389571,1.0515459031145655
0.07800393882811064,0.05845308885864248,-0.33737582419237466,1.0206288905761864,1.0544119752795975,-0.9405984733204388,-0.9791166467373603,1.2447468903794736
-0.717177203783803,1.667324939649893,1.1931394776840283,-1.4905094313367122,-1.3421988750969691,-0.6370064282012977,1.2101405259726286,-0.4283438119474278
0.25973585723620624,0.029158244846725863,-1.629590406914709,-0.4659465590610962,-1.7746679895695316,0.21799950650607322,0.3208763263932635,-1.319240632979982
-1.1118601728526512,-0.12032286556713172,-0.4396272945260481,1.1386515521167246,0.29685385005025555,-0.16702441827058728,-0.9858618919755526,0.0033481321314233407
2.996792905284712,1.030844734682681,-1.8671355427819047,-1.6588348258524535,-1.3810654813792471,0.9748276307831869,-0.5464245449681138,0.03222700343692464
-0.25136947585304453,0.4138636824192357,-0.6247425667187461,1.9274285959612723,-0.43950384095133754,-0.5387156835615144,-0.11468938375839298,-0.31524179484708753
-0.47133941457515904,0.5140488375888412,-2.130481901702909,-0.9266890118532681,0.437170970195973,-0.17031746990981797,-0.5595178481264832,2.1016344493476318
-1.6899399114607503,0.6805031771387681,-1.0315849110706667,1.5083766184343617,1.0033049602383548,-0.7522760650891597,0.9482596693541363,-0.6873641625135515
0.5761477545371392,-1.2900221614972034,0.9604547559730494,0.4720839267133322,-0.8546621539135862,-1.5111895461930274,-0.45337589041402626,-0.7908382913163616
1.008669395196846,0.9470098786116458,0.7941786808903469,0.3906616032983108,-1.3926808306516434,0.6387518923420874,1.2891067882146503,-0.11295622589475479
-0.18976440840060693,-1.5262247676947307,0.2669255465367705,-1.249932952218174,0.05506524728116654,1.1671010908139663,0.44355527224009794,-1.451169822042767
0.13370929002494678,-0.07431468514214429,1.1523896074586375,0.9863842427775877,0.034995048670174285,0.3188506762707065,-0.41158496280484974,1.3776638262367626
-0.8950626819182921,0.7411395571092206,0.19558737108372526,-0.37485021958225756,0.437780625896578,-0.08068796610167342,0.6018849270337429,-1.4792149975449203
-1.382719769998494,-0.48158861292744226,-0.37738422352413936,0.9278028880622231,0.1770592591226715,0.7505752723646251,-1.1427975187296393,0.05971088880158383
0.7120022127140229,0.6886251041131113,0.8206799941963538,-0.7381156686509428,-1.0540385280851448,-0.5025365909850893,-2.3101985487080836,-0.2871457939760573
0.4438557438633212,1.0990908562424304,-0.6697628806220998,-1.9867094281116637,1.8641257317179512,-0.05115007622117158,-0.9728188940554255,-1.3912456513963103
-1.5408923078962014,-0.5030902926066777,-1.3798701668864222,-0.49958120381313165,1.3618983088768764,0.31930653375628676,-1.3588519229174103,0.8469636318960756
1.832173222774983,0.6246225113562277,0.420041833249601,-0.7377115206280647,0.1385956303536444,2.2683919626689493,-0.5926600762318858,0.2285310248613502
-0.3368844950230827,-1.3766164264525147,1.072675660751915,0.6781991552351927,0.04566412324984263,-2.1488176624271538,0.4811253393929726,-0.9777337841866902
-1.7756617642987587,1.2800546040958043,-0.3094057686024156,-0.5821326603378902,0.5576397607610716,-0.5680435934765408,-1.2590081220598919,0.6707533555003855
-1.40854252156012,0.7126822739469649,-0.8183359241483849,1.3644703920354233,1.4290744941329454,-1.0004034319958433,-1.1220726960531282,-1.792346041788256
0.4334020211056458,0.3822866659325254,-0.7557766661333318,0.23854790511402102,-1.093235958759668,-0.5206734884252537,1.0873720853692308,-0.22587853518596576
1.377149127833969,-0.32634215845177234,-1.2954751559592812,0.6682478804595001,-0.5824202557779572,0.5665359075414041,-1.235700151735252,-0.8154083435523892
-1.4446891175989025,-0.6064021839490868,-1.093135666693184,0.8364716179520032,-0.040135436968218245,0.992560418932725,0.8042822853794489,-0.7654796170064507
0.6243543541712363,0.809135270993182,0.6251201541906637,-0.0017919122767934565,0.3615282330824099,0.9293722413034043,-0.20256377079651233,0.26260040016081854
-0.9219482789755422,1.1864147666855156,-1.7154297355487331,0.03483991385220788,0.06343287712574307,-1.6537019683013063,-0.6450004589527744,0.35751483870052003
-0.666231338326053,0.8209400832933561,0.34677344819681827,-0.7155045322590035,-0.23501498452620997,0.6342412645695586,0.38021021819580625,1.1713400408455057
-0.962999005600684,-0.19477383492315198,0.5257755762195281,-0.008252773680873758,1.101731151777696,-0.7651355842354746,0.21342069188192805,-0.21487477724764212
-0.38479324865013104,0.06122034612381961,-0.45929105316311425,0.8090841941273044,1.6247784955224946,1.0115669290832698,-0.21370050434871138,-0.4773119601767113
-0.4104029308083759,-1.1454846160335368,0.09194721036247333,-2.057662082922945,-0.6165068549876315,-0.7986040410115389,0.4790588135502568,-0.06382241549344393
0.36716284690296547,-0.485496380635423,1.4616653482634743,-1.3089780087398568,0.32424515984010704,0.4288781677766726,-0.13403054703265052,-0.22770010627063936
-1.9198427608097808,-0.3703827776111895,0.27670491668737784,0.6201530599043259,-0.33153994958714417,-0.02570292016913946,0.8842607626206643,-0.23364352064733468
-1.7475619832419391,1.5952128592149106,-2.0819702929752246,2.4060974600139957,0.5676792625582034,2.108395374683453,-0.6177177222418798,0.9141029848234813
0.6002834198317558,-0.5638043916272986,-1.6320755722937679,0.20011333212550794,-2.656373029077095,0.7145747934675345,0.3648769844681182,0.7368425224390553
0.6056874974284643,-0.16747411561042408,-0.6982105216720204,-1.9808830489627436,-1.0682728933315697,-0.16600537571316873,0.8841942189301958,-1.860719083735077
-1.385526988550537,-0.009558618596595932,-1.0479255094671218,-0.38830408421196216,-0.27311579781534906,0.14557238365146452,0.08613572473136787,-1.2540068873419448
-1.661068552160046,-0.8555826302073364,-0.5527733813386165,1.6757896658221803,-0.4029516565959227,-0.4540407287723598,1.0477785426743245,-0.31506588037911815
-2.135094622179243,0.6200135427888305,0.9726904595006789,-0.293059208914359,0.6102396490646179,0.3513750771926261,-0.2804332466535628,0.19673187385917432
-1.3026032269744403,-0.12021240973761947,-0.03466382880565317,-0.6925759821416003,0.47736940268548717,1.3576474844865474,-1.3155629391994503,-0.9744305365434506
-0.23651796819077733,0.3655894383871829,-0.48507261690549985,0.925623646283196,0.42264408453733837,-0.5617232494513315,-0.16891029409990702,0.905753678326196
-1.1890364411524543,-0.652759988551079,-0.9835046242808742,0.687090019389719,1.204691065207791,-0.6720788485533147,0.18006779885222374,-0.15689371838928515
-0.7572179647334091,0.94157849724462,0.9589135640522191,-0.9578491313018987,-2.1947747139436036,-0.9002770193340163,0.6147718385177569,-0.5563469018428531
0.8193259774036661,0.3718780715384258,2.756060016766706,-0.665559340817001,0.22086170932197696,-1.4319513152484507,-1.0575520166984107,-0.09070259150402302
2.0008323553033764,-0.48086591901407244,1.4171653601356973,-0.06562748490420635,-0.9438556509956207,0.833065420214866,0.45552990327907167,-0.2568036382911359
0.05240314223753854,-0.38802802709279366,-0.3921366990847168,-0.1734325731566459,1.1530308479446572,-0.7852711004088639,-0.10275853902866698,-0.4581637801551657
0.2600785780021616,-0.48698883041560426,-2.3720829612841237,0.409581446239063,0.33208526706224745,-0.7432545493517733,-0.8498472950537571,0.624606877001062
0.10596205822703174,-0.7096539763851782,-0.8863354328175541,1.4801752069254035,-1.0879149563633816,0.06565073915673814,-1.642173062724399,-1.3014561897376522
0.7184780676841824,-0.23603954165125254,0.6033619987694913,-0.47530547874463475,0.2449822470434042,-0.961768627706647,1.6835976403844122,0.7450559482907039
-0.6586876548910292,0.4033021495261704,-0.12600366984043115,-0.28742099986978364,0.41983423766602757,-0.5550349907725449,0.26685035668756557,0.6348214949673632
0.08740008173742313,0.021439279118653082,-0.5963961527113381,-0.6060620447615233,1.2372876464374174,0.3925468280920642,-0.6418470887499684,2.0140567592552023
1.7130846092461425,-1.4169440239373738,-0.718423461746526,-0.7319226344569325,2.190551920003146,-0.29579373372245604,-1.1929807707214208,0.34804677211679325
-0.24894160979188024,0.06950667839540266,-0.2707957495368901,-0.7391592388805065,-0.70580641545473,-0.6290776101384707,0.7278229614234224,-0.6488614304977832
-0.33344453615307296,-0.609318256600529,-1.0305719078638496,1.4527006794152857,-0.8396426332823288,0.8873643238034841,0.6431841892790976,1.3443498072207125
0.2280629238756325,-1.0960787555821125,-0.008193339872429723,-0.2971789378049648,0.37671001807333304,-0.3009849997711695,-0.3924264568841723,0.931834335603301
-0.8060529902704415,-0.940543294678794,0.3986063417456586,2.001191614115105,-0.16223716374226768,0.7713785434873257,-1.5151920246138566,1.207163073891863
-0.6596059224637,-0.8200920132005819,-1.4785713262620432,0.1623103716803827,-0.12926739702869222,-0.45954896007582846,0.5349083354026464,-0.8300650140049611
-0.49477558110174935,-0.1081313320991489,0.5940000058991698,0.4967868155705017,0.266118194670315,0.679725448385188,0.734355935141129,1.9760629328412969
-0.006848117068413551,0.36477491655371025,-0.9377909772075721,-2.6612392687741075,-0.349602095645109,0.46887870628407086,0.2974341084009927,-1.0221239104286717
-0.10467137036418839,1.3553288395363845,0.09528356293295107,1.1656444913706303,0.36589499161593453,0.3081840562996954,-1.1095293174968432,-0.8396123255240995
1.1346672513792273,0.5501442168448522,0.12956480857064,1.1985502484288892,-0.16813509046640499,-0.13756322409667895,-0.3368628351641053,-0.08219596002442597
-0.8148995276553573,0.3502500196424278,-0.05891649909467768,0.3478218603804689,-0.6546795106698103,-0.7235812739520561,0.19109545268556768,-1.1004391820019377
0.27677666814798474,-1.7727907336524915,-0.7195168197427886,2.5303179707649393,1.6252284391179148,-0.16634315778509515,-0.13027095458039523,-0.45385720178614064
-0.3086603107486831,-1.187719209399135,-0.49442464341568887,-0.4775713830728916,-0.09476850864903372,-0.9459842084830848,-0.9545604059364533,0.36129947613615154
0.8234974539492367,1.2248316605739782,0.5971689312662442,0.1341863668816542,-2.0836741162445764,-0.35865850156940365,-0.3513335499459411,-0.39610685846899707
0.3563122703184905,-0.25344848143192616,0.7151042461812173,-0.272428304552422,0.02980822855097509,1.054540639477378,0.12293781175985681,0.016048150181694403
-0.36030783520454046,-2.457279177518859,0.8827649591637374,0.057914674948718825,-0.4592375898047089,1.7338105704474025,0.4105404324448866,-0.8943284159766733
1.4612383448562725,1.8666179566220442,0.07108220219689455,0.4545106021216222,-0.8851426153029637,2.056787604749002,-1.923447429923385,-0.3241744775442836
0.8200215530683683,1.7309788800041848,-0.4797060460750938,0.2646510385076609,-0.3463852748885727,0.6560981935387808,-0.04093326505615428,-0.2195393047902458
-0.005083437275859202,1.021882222754733,-0.16457952178339783,0.16795932991353815,1.170800000209017,-1.0935260938296465,-0.6440421463080794,0.7775969403701638
-0.1380427261473108,-0.3104856187459,-0.12328139486811628,-0.7222528187223709,1.4931781179012396,-0.9304337574833869,-0.7082919417578102,0.44935698385671285
1.0614150416186758,-1.2945767993464063,0.9735989205068329,0.5090739412918437,-0.17259302481026456,-0.028127962757563272,-0.04123712903684789,0.8567729970898075
0.7856998746721896,0.22435393088179859,-0.5150755789823579,-0.26912706484468457,1.0025129559830057,-0.0161598171710922,1.0150476805004038,0.1339702412390829
1.513743315802892,-0.3924372200555542,-1.8389794461937903,-0.19641205241098086,0.8317927744531604,-0.7214929615049342,0.587817402241632,0.28961588722471016
0.6667227355795883,-0.4558756961177204,-0.6899615928747608,-1.7767081204967015,-0.9542232089002021,0.87178768426628,-0.6646276546614257,0.16158165720259293
1.3495293521215808,-0.6538701271603915,-0.15657889839271663,-0.20530122064868453,0.7146165505183989,0.953791664279065,1.1305761725257875,-0.5610919674971713
-1.1302987957813173,-2.613223500147155,-0.24271171118406015,-0.1761211852491771,-2.513787485002609,0.22550540106438072,-0.21007620639931923,1.6453164551034525
-0.6843829837705526,-1.467618362130067,0.2642071367192926,1.6652719508639677,-0.5754968972684734,-2.041922729299668,0.6714529001714186,-0.9699113427739046
2.6630105458824254,-0.5883567006875408,-0.0933581225878108,-0.6896376968840064,-0.20395486714359762,0.1769525908574511,0.06526840051753506,-0.8388460182098237
-0.6234932554088517,0.748049285857327,-0.7166270946782934,0.47071441006719145,-1.0254024709574932,0.2629380910136359,0.7134216545213609,0.12315147293516465
1.815845510181914,-0.34867124578081304,-1.7300889534673822,-0.8037425271464732,-1.712085172087496,0.9314670902134039,-1.261626667108839,-0.25964477163528654
-1.255137158134606,-0.20421682025612295,1.4507172045939187,-2.1147203826839944,-1.8893403381142697,-0.6196508302100828,1.256244979253344,0.6906880017797737
-1.0613294461606388,-0.11219944905842533,1.6528928819515158,1.708162316102095,0.16075983287738346,1.6256797945308668,-0.33122831970653277,-0.24482700289019474
0.599177943528358,-0.14070727900769076,0.500056806204826,1.5323364853202666,-0.529832255064323,1.3010579852455812,-0.44369699630513004,-1.4425318449894196
-0.19768388344723856,0.10879783923559407,-0.25512582032259157,-0.8845470865608352,0.6573787833389282,-0.010152826145829066,1.0062008554010826,-0.9685926082425051
0.15393257083975168,0.6020617317716559,0.03707404763056627,0.008440474978437062,-0.13562695210759634,0.7498565308656393,-1.265941340432295,0.699800562593405
-0.8420801604366587,0.8499227430215252,0.7738817274456203,0.6960808193741003,0.5264710378615216,1.2321905805347704,-0.8046556368061047,0.24984257768108117
1.0740266295801155,0.20842527299411762,-0.15248528735444541,0.3101108075579814,-0.009915144163165877,0.005888085929543232,-0.6330599501947501,-0.11766463622530637
-0.20552674504065138,-0.7210402863948163,0.5649963820935648,1.4383934491875505,-1.4008431011396827,0.6155841157292272,-1.1061384918403947,0.12702221537633937
2.074720087848063,0.3010367572066138,-1.626536668873096,-0.0704187012659154,0.26508860930756367,0.6809659513513224,-0.870998411090965,1.4553433600462393
0.9052789160087409,1.2117767414965315,-0.5916559299556812,0.2208896540692119,-0.1068278756132666,0.6899807996771578,0.3274708139844569,0.29129048018497145
1.570424835386135,-0.2151708517768898,-1.1654455631126326,0.3681876786897748,-1.266882122241646,0.6289476008553623,1.0724373655567263,0.7075650158154324
1.036562609274177,-0.40423149684146525,-0.5499427772578951,0.303854815880575,1.6870689070945013,0.3832473376029317,1.2169322510934546,-2.9075788931040223
0.5868138227570321,-0.7262060623930789,-0.005350903852689369,0.9697668660157587,1.020673035434318,0.6461479571166384,-1.6174917827746527,-0.3086119955174948
0.006682118265209477,-0.5119497930261895,1.4770259487006192,0.16295437401205454,1.7246188829881177,-0.724314230128739,-0.29136531538227417,0.5798680475985046
0.21447578661151562,0.7240461579637674,0.4266123958236843,-0.7178918524899367,1.151703663697575,-1.5295375154829285,-0.18802301830694898,-0.4983478833806407
-0.28166453138485575,-0.22913527467375036,0.32174663225890926,0.62363337166883,1.7259050926450694,-0.3301156317934964,0.7348793179304266,1.2655067368815907
0.8179040753244222,0.4804472697095672,-0.4936243314624255,-0.12891207782590994,-0.10061884756251843,-1.0576322114161312,0.32519058825894576,0.08054582057491344
-2.5952776002002818,-2.025476634450779,-2.6278485900903896,1.3882703711393487,0.8219835966655972,-0.6989541393576555,0.4026031894225799,-1.6347376928648443
-0.4360402871817825,-0.15273843234592038,-0.42901349888448087,2.6491299565567368,1.3131242667123673,0.29019147411589824,-1.9216998396890894,0.9064718664223155
0.18170230105770457,1.4000969561504601,-1.5989240733337495,0.613434756669177,-1.6829717207412642,0.38493024708529405,0.5335914347305715,2.584045325766395
-0.018502622719495626,-0.0657012645486562,0.5906426990691572,0.08584679456412132,-0.7510126677193157,0.1185910517807524,1.694133025407453,-0.05793528756459671
0.8982043574521495,-1.0722855111369571,1.3088651309362527,0.6910402406751112,-0.694840475448213,1.086214209045235,1.0815455148268056,0.5246075217802101
0.5346817196343164,-1.945445845921821,-0.4053523027863723,0.06910527533142341,0.6281514716477349,-0.9409718405335237,-0.7005179939009252,-0.36295727209184336
-0.9474886008150909,-0.15879942666668354,0.3345532322312362,1.2435397383841233,-2.0918523021490825,-0.38434946422477184,-1.5110990970549258,0.21263032798566456
0.48670188150128213,0.5285567462471203,0.5197571221566036,0.8800654914859011,2.1662034910876184,-0.2496047045541618,-1.2463304932658144,0.5362116083890985
-0.01717713385396456,-0.3831290270901652,1.0178638223202336,-0.4713283628501581,-1.7926358296750338,1.2012139530196224,-0.1518085287864294,0.03130882462130084
0.19203228592258417,0.07867815610510494,-0.7640766834259056,0.7221805005449048,-0.6978039196894479,0.1507922918280615,0.5433838564858168,0.36200438253003975
-0.8989703901796073,0.39320863201108114,-0.4536810822488214,1.048860068409676,0.31970082944514944,-1.9228584717285133,1.1468166484693925,-1.1683637105564646
-0.5281940068694692,0.1948182330322475,-1.2631961314360158,0.7831755953909668,1.0836880960131312,0.305287549168525,0.953780655466983,1.7422796118661907
-0.19810474985550097,-0.10175708181932717,1.2688971977563035,0.3285386983352393,0.24857426535443472,-1.1639452742778735,-1.6437537123750257,-0.08530779487281337
0.053285212089945896,1.4112817513390679,1.1967182612079457,-1.2146725493227535,1.9556585003832847,-0.18358014352293434,-0.005159369198834643,0.34311420740051857
0.9104708686891161,0.5149750402180504,0.24995838601307843,-2.897474502744151,-1.3722962538011758,-1.1459019407375401,0.4095737629713225,0.09584238069304821
-1.8172458928852007,-0.7349674441063301,-1.5762006307925804,0.11379216651653379,0.8618661658417481,0.3890812624161529,-0.9987860397105093,-2.48675571512123
-1.5566625962173186,-0.511697346543967,-1.4084917964097032,-0.8308939858734515,-0.6314567003511042,1.070944760303204,-0.17330159782484433,0.3468934748740069
0.1299070003130323,-0.12417648010520753,0.7802229395990162,-1.5260771553268802,-0.1302147911671855,0.4192365507310093,-0.8770086550933528,-1.2139466762702733
-0.5274004707111507,-0.2624247582686883,-0.3894473033157284,0.13818248538206487,-2.683862270242783,-1.355256118896012,1.2180893674741715,-0.5686636543894098
0.45558317668776954,1.369154200601033,0.3091776852820804,0.25919287820557946,-0.13921541340218097,0.33290078604510204,-0.22456511118703396,1.8786292719472366
0.4374620555762382,-0.09761175256006822,-1.5290124950264847,-0.6942092697873568,1.9955344182139974,-0.6074463961124882,1.449012182431083,0.18042290287495338
-0.3041691543449497,1.545353523260159,0.5365837099432266,0.9983973584337302,0.21507183190106088,-1.293084318323752,-1.2775181420102317,-0.9902218896596515
-0.3135401387322469,-0.4137322060181371,-0.8281694572991657,-1.1735587061265393,0.05950874167532993,-1.0341101106609945,0.515383091100678,0.10144096013451566
1.2368930780995167,0.43381614132007057,-1.4229590931359115,0.9638021216976105,0.7878456727982661,-1.4495130821808553,0.6995196629815568,-0.4439024072044036
-1.0973447925963213,0.4017578181869214,0.7665456198080047,0.5252167317744529,-0.7369481218644287,-0.5979480770513854,1.0569691543945983,-0.23749119752425252
1.0734897050570347,-0.03714687911108417,0.9178450944021949,-0.6357139869520194,0.836639203504186,-1.1252807070158184,0.47491663849666976,-0.2130685926871509
0.5940711493740124,-0.28313921073089904,-3.419476108693247,-1.1659293924840595,-1.1013995093005489,-0.3617007929843777,-0.3881516111622088,0.8475794458180428
-0.6534600081977491,-0.8976057747189039,-0.2436705975927386,-1.3590489859518533,1.6028363787772144,0.1826637297566071,0.04468151412840997,2.4378360604611107
1.215919797177112,0.5565268596729745,-1.399580847318117,0.5405015427866037,-1.0197572719005998,-0.02905273018328186,0.8155816579284342,-0.15973866899478467
1.83264091503302,1.6199468770789818,1.5048725933286244,0.06268438126353662,2.144843976110448,0.33353760719368175,0.18734823765737432,0.2046376965655959
0.023656989252040395,1.573832850957486,-0.3684553924402683,-1.3822708252187246,0.36869699154133284,2.4869673936898677,0.0889615629831255,0.14796372112610887
-0.9314186333133511,-1.912366671857828,0.645445054593453,-1.2996597197657094,-2.5411191393369936,2.2372021472914874,0.3140538690150055,-0.1168418592513604
-1.5290768910496686,0.9585594745783588,0.17052086134643138,0.31023198036410776,-0.10505258143652317,1.878768022251461,0.3070569981398884,0.7445881102303694
-0.0032264109982678008,-0.6820965385217919,0.6069072108140028,-1.0153737071325686,-0.789502307061982,2.1825230040215664,-0.17011339212015844,0.4103299900367167
-0.3179854979995281,1.242717707965394,-0.5383137635688754,1.2553871935830587,0.2682066840928311,-0.5895062066748078,0.20788900978673716,1.1413154650836104
1.7192346021273324,-0.08958627512450722,0.07261095832677082,-0.4630268279873265,-0.2295604675756222,0.5073576149835979,-0.37963596093379465,-0.04108423248608476
-0.15307348425611322,0.40423871311992654,0.6399259508132823,-1.1730638931306712,-1.2467856166479974,0.6310713128167085,1.7823957826855115,-0.930515392832978
1.2210792093701772,-0.8305115276039142,0.6567802552486045,1.564287594668618,0.5340082475232714,-0.7234956690645512,0.005395029989968629,0.19685401904499406
0.08991728493882585,-0.49255750287245836,1.370427976730095,-0.33998654032334125,1.59808959583844,0.0768892978737792,-0.31671772729416287,-0.06670767849367572
-0.12364839149012075,-0.9168086019341919,1.420233704152313,0.879582240343747,0.9117920036027579,-1.0281562349817261,-0.1831530766381733,-0.13125567269919566
-0.3321560467259078,0.9568657456218295,1.4527962219215234,-0.28497987822966064,1.6294020704628849,0.03640598269635378,0.7939139463687908,-2.1222794737324877
0.059008972109730926,-0.5153602969568288,0.1765600272559667,2.478089970928915,0.3612719817460555,-0.6578196506232531,1.3762348266706221,0.3766905935732112
-0.2558180525410579,1.9032826435783161,-1.3708678899680296,0.41120915829318444,-0.9986629069373236,0.6750933807896213,-1.1176932082959792,-0.9973455111021142
0.7208719948219989,-0.7723305687394644,-1.0743348444935878,0.10323375677245566,1.830205828119313,0.09546029373877005,-0.1675209379344004,-0.4362144860677756
0.7908541667292892,0.11129078869848498,-0.8360293201524631,-0.18865169218325673,0.1326588476867566,0.7941561795575434,1.531703469164847,-2.1871189102522828
1.75512600474027,0.9347199633797119,1.088388180055707,1.664354955687938,0.5963805399516416,0.12851428416206662,0.13694641393059004,0.2159174162918155
-0.4800125932640713,0.08958279182472272,-0.648716976360662,-1.5073300184986784,0.4307115682210049,-1.4634542326707187,0.7648814039643393,-0.5329281751366465
0.014274745886638997,0.1349878513159237,2.142775831087457,0.854390630210238,0.20512160101801505,-0.6816554585976712,0.2571673532771931,-1.3110973839770297
0.2798037547624178,-0.44503405745417945,1.7543001613306222,-1.3876449130505675,-1.0613783209241272,-0.12143457310468216,1.5041351226030708,0.9011003684237799
-0.2570488292486112,-0.3339776845414905,1.1889080847389664,-2.1259354550549636,-1.5767581893723865,0.4420258757466172,-1.153419589852974,0.13348285657141304
0.7987206751546014,-0.6436281285974996,0.3873729805386573,0.3759146101486333,-1.0722231913649458,-1.6479052650412667,-1.3539757419464078,0.2149051757604517
0.29062980883959677,1.3545903965536146,0.6321844682138621,1.6443814300417638,0.5340827842456495,-0.8479114200947341,-0.3566255712500085,-1.299799400758532
-1.6708479142150472,-2.3260027437079565,-1.2387253157698181,-0.7070783060102283,2.1889978511190242,1.2067101303967995,-1.10602953267856,-1.3695083176875538
0.4042297966517048,1.5366085666170606,0.06836884107120957,-0.15783654333799374,0.3304176065337586,0.547142545922137,0.7333410402846515,0.7736148660968993
0.7949573801486535,1.0792275999065701,-0.08788805468455722,-1.5495198651406528,-1.2124960887604896,-0.11308859142534017,-0.6693841591928509,0.43384332641855833
0.3617243889877913,0.14078240867330521,-0.7030738454517927,-1.0069547474326341,-0.00020031097705507754,0.9608934963924985,0.08633251070160297,-1.423211296102753
-0.25241092393081754,0.6311028535050006,0.32220586655463124,0.11341704911881183,-1.0717424307214447,-0.2863864733485554,0.33242208170287385,-1.0416412172473555
0.1107089418943674,0.6798217478616162,-0.5985068508981886,-1.9738406736030047,0.5451353453363544,1.2863935385955534,0.1687259876492969,1.2061661980717049
0.4523269445948826,0.6895041398851948,1.00653354342472,-0.9686848535495918,2.026081847121234,-1.5235454499365009,-0.928764412887733,0.3487353794421844
-0.7042931439729184,0.8353378784086961,0.16456508884976606,-1.5349965836472124,1.6160669471579132,0.028454093415029497,-0.9921760408390888,2.396795570638426
0.8941774139377869,0.9457628902926957,1.844951362416468,-0.8771460816900185,0.7538323984436861,0.3797214894511164,1.2523603020299543,-0.8035196877988803
0.2066914264538965,-0.7173958235405966,2.1261311750840544,-0.12800848189871084,-0.352369409248915,0.2694356150098257,0.2865481369419591,-1.2500868714139461
2.140880403061216,1.0837178144720097,0.08187867601323046,0.7326003034350238,-1.646230439807524,0.15427334285359628,-0.2552624972857696,-0.11018127702733611
-1.0301203995395356,-0.27546389194609694,0.5507320640363366,-0.6528765403674447,-0.05308894492338597,-0.6027185027717136,0.5902603389690811,0.19340973731773073
-0.0048478027374579055,1.0387295398260796,-2.050816535862428,1.5270357346637347,-0.5457666836430158,-1.1396280317909437,0.2553059216650353,0.04791367614622809
-0.5774450798143265,-0.6939704407885265,-0.5998382277985115,1.448590067518234,-1.2666126743595143,2.745476903698311,-0.14873857243305041,-1.0019598258464808
0.979218280052253,-0.8410836378723728,-0.47088940462796514,-0.30656181688296014,0.583207973040442,-1.3875742687808645,-1.244181794399564,-0.850569984075013
0.5821185850048344,0.19427174752477946,-0.2726789543962029,-0.10355211852182845,1.9575535956988122,-0.4390851747149785,0.2495084791181121,-0.6478613303230791
-2.0461352633338237,0.4436225341955174,-1.2476212389470807,-0.608647121727378,0.3102069549396174,0.9980463399183656,-1.5185245070744957,-1.6843071529743239
-0.29438251572909957,-0.19253243673387088,0.824670305223803,0.527872347553137,-0.2500340216884536,0.5408067232092567,0.1374936808706094,-1.2730660993538871
0.44489115275071756,-0.8805007945671915,-0.9181195556282467,0.04375780376249252,1.990744134786092,-1.775622975463082,0.128011877760027,-1.6832773776556222
-0.7919453426194688,-0.50523611974129,0.6825224895491295,-1.5930088046519606,-2.8255005681529597,0.42492908375302096,-0.32101728810041036,0.13334371830323635
1.3552963073317945,-1.0685286908170226,-0.702478784939894,0.6706741054636619,-0.4914345615801695,1.2711460301703073,0.44569644468741765,-0.34427401079113334
2.932272053930839,0.9346096554585448,0.12410493748727702,-0.31126114565371993,-1.8349353983874217,-0.27168911264949097,1.4284954391664444,-1.3552432442815534
-0.40364947450054744,-0.21207587301841965,0.3940868645899976,-0.7266022796896563,0.10844807044002779,0.03969314371803444,1.2593118544698643,-0.3091780839610786
0.10347014810705556,-0.1908314457833012,0.26865484249560573,0.8750295103895618,0.7381902408834891,0.419470650522638,0.3420566651461488,-0.10223444413177135
0.9730804909617511,0.8396221819068203,-1.0163827573456323,0.9377545365929508,0.6986807418641172,-0.2797216986082325,-1.077625731677108,-0.9012436812891187
-0.8701768518556263,1.4071325122014908,0.16680151223219317,0.8985288461574586,-1.2795561025729278,-0.3486378914333143,1.4941165091253972,1.2430107728041824
-1.4405463232837559,1.809678480070664,-0.2276806243451578,-2.2891919070279543,-0.6336686266905257,-0.8124227993083181,-1.9493583846727904,0.9430514434609418
-2.559362389886099,-1.0282976364195553,1.7135643403197494,-0.20637205726294822,0.2919003229307146,1.196922058877098,0.9914009593139825,0.9363256239364396
-1.5006505625254352,0.4508461785948139,-0.09242369509161698,0.07654091821830294,1.1742155798015177,-2.2098104064154356,1.0221344388314868,-1.7122926358898984
2.6316061416856957,-0.03844995182517083,0.3387144547341384,-0.3735938247612907,-1.2918241884287918,1.3903994778629656,-0.22075644248492143,0.9296731320957959
0.64929168522905,0.9426470945687205,-0.01582414295091098,0.2698474807518246,0.20907332463767409,0.5968928147237644,0.7453773174411505,1.5716553875398978
-0.46908679400665004,-1.5706653916101556,0.21701232705003218,1.5339583940629289,-1.4426123806750308,-0.07973604509101129,-0.23773997713045877,-1.8013627486560477
2.1833373603337676,-1.229681450786698,0.8012897118514608,0.013594921962091397,0.786761960704247,-0.41545277780488915,-1.1391761152862736,-0.8167783147243867
0.9753963807060553,-1.5897211467954506,0.45011382551359796,-0.9128358677422863,1.8369698610088274,0.4170759537430674,-0.2171101459580717,0.7052678480514696
-0.6825645225568591,0.2138878855894935,-1.2968185548388962,-1.1965197157861864,-0.7314405799012993,0.47783601835262607,0.13162643281656122,-1.17660677712653
-0.18690001733033612,-2.377720609688027,-1.487430555140144,-0.29227026209598994,-1.5963968106167075,-2.966851762840631,1.3079867404420957,0.5928376822360906
-0.14907899755302015,0.02931839340845649,-0.5790546582485655,-0.715442003943141,-0.07048472281972615,-0.06596606465428198,0.6768865850613759,-0.43366516010389006
0.26145652348312143,-0.6739279155845413,-0.34421018649543683,0.8507970855827797,0.9682208537191889,-0.5209412533838423,-1.2381347075597897,2.1940545679887924
-0.020461735478499662,-0.5354188431620402,1.2089362529532552,-0.1395303843007173,-0.1451109617567301,0.34895286941975895,0.6618170706463528,0.8269781204810741
0.2516427605654786,0.14190565069509092,0.864760333481858,0.8751220918179266,-0.8271581489376815,1.1526704120393385,2.246003819662314,-0.7440901499584405
0.5692381368069198,1.7931956330499574,-0.7195722817312936,0.6023095675379809,0.49528109588983704,0.7172992242996927,-0.4258758966796023,-0.5778974621842433
2.2026024778949123,-0.2338304430354531,0.10247322245931936,1.3944577924107524,0.07035332733351381,0.25068019467633057,-0.21945672566950075,0.10193401964414223
0.21384823683188797,1.2915796593827134,-1.2933589111995225,0.25125399329259085,0.767178251728954,1.0417027355839916,0.05998755388794723,0.8387300318286487
0.4656444813502248,-1.24004955161322,0.8046588298589654,-1.6540460533031465,0.3638890351301801,1.4891922765189098,0.6895044496601948,0.3111122997395439
0.48793605496051773,-0.5652608259547283,1.6266124540145501,0.7756821012030961,-0.1820197794264076,-0.28860422820255366,0.5314122054689635,-0.3095672125032136
-0.6947300540864443,1.191854649932227,0.01493851860876587,-1.3916993554027133,3.427290109242115,0.3558698896908668,0.6284143109550783,-1.5817181369947164
0.19551459872617027,2.121891092885349,-0.5024980909825972,0.25809636397408675,0.09794483583949787,-0.31238927916649395,0.07509970550941951,0.7879192763739903
-0.7744439056130109,-0.470129978294555,-1.1441554845938404,1.6881980656818074,-0.744564538409694,-0.3630562233845401,-0.7318658942082347,1.4930905564458834
-0.026096451792786225,-0.37979928059988327,-0.22709192130470557,0.24961353231685035,-1.3277922016012564,-1.40301496624939,-0.9902760475790158,-0.11161407667767875
1.6921705526058726,-2.051339625836691,-0.06956804971339497,-1.5329096113132599,-0.42351203386175573,-0.7686131285095447,1.2200951235459014,0.6042697444653518
-0.15894413568904633,-0.6633659462857534,-0.34723957591463095,0.8772787565372897,0.2851002209582077,0.8931753287089471,0.7001608195979931,1.4496659103901264
-0.16995927535039107,0.925842699142435,-0.7057298388486991,0.24777593498330847,0.8762982269615603,0.12026495308115512,1.3592363057719945,-0.7153587038486064
0.22063155000849308,1.5946932491520742,3.092799727012198,-2.1414645212552044,0.26189770234603715,0.42094655795623004,-0.25718772697478814,0.1523295443823116
-0.25799659102452643,-0.5695497071237657,1.4426642754524024,0.3269471491914628,0.5720903833956633,0.6755273332358352,0.12624319568888062,0.17388176964227686
-0.28208161886436983,0.4288116857273095,1.453350635095163,-1.5659221373753691,-0.9651854700896335,2.2527459877862404,0.07841556852418895,-1.5259109927985408
-0.9944857688980359,-0.3710021593372338,-0.5146708159635788,1.0932611743533749,-0.7655547710611112,0.7892418658923119,-1.1307044898482512,0.4483852878158001
1.5740443949063394,-0.7346440544302097,-0.26026648861319734,-0.059744773286842356,-1.051909709974559,1.2237444694383381,0.026364031228910612,-2.072415204900934
-0.5459375281762024,1.0849976084046138,0.9848867500146187,0.40407567657865456,0.04514611677839987,-1.8957605417125378,0.013382002006441325,0.502586418729439
1.3443800996086233,1.3194713535104188,1.0756078298186473,0.5378361327529187,0.1991184672215184,1.6591058002141188,-0.3113642003904115,-0.6018588661740781
1.0871926942424626,-0.8813761755892582,-0.10613034019849646,-1.0940962033361838,0.565690200365856,0.49133046652711165,0.03874613683167104,0.5798919068647634
-0.2589290212443274,-0.10124909314518685,-0.44059498122385377,-0.5019699852285364,-0.7930317505093475,-0.9121423227985991,0.9754054303237474,-1.0677185385771264
-0.34099238567747575,-1.012265654484529,-2.007472504321723,0.8670806221844077,-0.956736684300061,-0.4133264915618246,-0.2984827160172766,1.3607037826142434
1.8564813837457228,3.084412682015233,0.816008014615397,-0.27019181309487517,0.13404824351349487,0.2725275539793093,-0.6297627714678313,-0.9835973290006873
-1.156947650533252,0.4310073835499439,0.06538972182022244,0.550566415757434,-0.47026985408316485,-1.475349249712049,0.25650994304094205,0.17711885576603656
0.026610357404836592,-0.025639388335770584,-0.01995253515306805,-0.5689381591648128,0.6775210419794347,0.17784543050899757,0.43011617960763926,0.17081170472265841
-2.309597369505059,0.703793579333558,0.17025498952002951,0.8076162255964827,-0.679353771763054,-0.8004886325022484,1.5561692624027108,0.5896891130685702
-0.7919019625272691,-0.19995390294057613,1.8541536800378475,0.9750081545149941,-0.6414528198986371,-0.37389507067315514,0.6986451498247855,-0.5130593501815279
-1.8675745829968653,-0.3323099541537141,-2.0718585915269196,-1.2992276032196866,-2.7265993373895094,1.4501042096131933,-0.614783952370718,1.2953305028898066
-0.09527985958090138,-0.21269970015500234,-1.395564389005518,0.9247178775369972,0.5032857121750093,0.5953899755417676,-0.31923696707006805,0.7782947294578482
1.2104390320588012,-1.0684800941649888,1.6510682247702524,-0.3596786121623853,-0.5776436168352929,1.191216147718984,-0.559172316465468,-1.54842326323255
0.7204436368079017,-0.5555588960784197,1.4792435656762353,0.7675135297274163,0.8241350249563344,-1.4750064646887038,0.2118030269952524,0.5565937573174189
0.4469422912132047,-0.2766240843917799,0.6519938653461999,0.5947820589587501,-0.9881934669949299,-0.1282537990844865,0.9538213324280294,1.1464738835078299
-1.6782074813681058,1.0412561920087866,0.8614229682703103,0.5151239944430014,-0.12399092047802067,0.805742465635897,-0.6057176494280365,-1.896683841328489
-0.9753372181258827,1.3809400799950122,1.2892949077491551,-0.6650465929837954,0.9834045517357102,-0.3298072803083648,0.39652418819207413,0.37032240832601004
-1.2207918894900134,0.7482875165469101,0.9765435209530288,-3.3982617242111215,0.2791606299050647,1.6090469381268864,-0.26763382679919356,-0.9447833455460319
0.5926956792435082,0.0005022940911623879,0.5768381428867044,-0.7214068008189365,-0.29822028909183973,-0.5692564772626112,2.190608810857098,1.1266276487692257
0.560699354546534,1.3691254537860482,0.35948901720679605,-0.08486106179134945,0.0627227565285006,0.001850771570250529,-0.25186013472500196,0.06138834746159818
0.3939267690597775,-1.3840284264345397,0.24733904438651202,-1.3581690522902863,1.415396285550844,-1.9887057418740273,-1.5327396377977587,-2.045490375480826
2.239229987087326,1.2855110115283472,0.1705373212112936,1.2037394179487864,0.8588784219951139,0.31952816604657525,-0.9218388632510919,-2.0242382569470996
-0.6576309518192834,1.182636850502385,0.023002416310344075,1.6272229051937943,-0.024293463659214917,0.8874185762919554,-1.7711554892645274,0.5094280852863508
1.015832795491386,1.3706243289520657,0.048821403924642126,-1.5354238084757537,-1.2177158244115378,0.4162671458731565,0.33908061823566166,-0.7992778346181466
-1.0110902340845884,0.4228961864429929,-0.397631800437449,-1.3648010235630639,-1.07961998102229,0.3534849253869701,-0.6613193918758125,-0.2962739625292081
1.9613742740337283,-0.8796622582403272,-0.7843590282832424,-0.07048059200478927,0.38202070306038594,0.52068517199405,1.5242196570841233,0.40746503123816225
0.6218332522812223,0.33477315308370575,1.0881927010641241,-0.08685195340072624,1.040246474085483,1.0792588453803855,-2.3126619949519416,0.26257114439099677
-0.8032206257616753,0.3948297763218691,-1.4793055319718162,0.38836925552208307,1.1591260285542535,0.355597354722072,-0.276504094650515,-0.049108404547935074
0.2904514877454483,0.6041700364079547,1.2190794090246098,-1.6439682148101638,-0.06366143860737546,1.0268552821082177,0.1620374349879342,0.4640503520501718
-1.0266894148717909,-0.678306919840269,-0.33543042948111546,0.9738462577851904,0.772581903660693,0.29697322718092145,0.17505403860877455,0.9277788493126319
-1.3930812275908544,-0.3632299046500009,0.10295731277018545,-1.4778852335477946,1.2678637955131649,1.0609302496922073,-0.703151428191493,1.184135624777034
0.7175782404654726,0.8475280759420347,0.24607981170323712,1.243315562550568,1.7731682261062576,-0.846934347655728,-1.4472388498256012,0.4060779253442514
0.572443612733608,-0.43849586844080013,-0.6247596497595584,-1.0800532536425627,-1.064889577379455,0.9940246157645904,1.4742192863160821,1.0128125466117683
-0.4473459145867122,0.662494000724442,0.513327909512867,0.5139077864793561,-0.15881188688889944,-0.1299125302014594,-1.0512251159179384,-0.7732368995100439
-0.5183982869679892,0.7352001872818006,-2.421816706740018,-0.4106356155079792,-0.0443727640785023,0.0038547365281293923,0.9937076510740736,-0.05386749107001321
0.6619225636396883,0.020116609169663457,-0.36711653380789944,-0.7122984176008312,-0.115068776070617,0.23172708985663026,-0.4788393016314441,-0.10416488758108218
-0.5314117049060638,0.47355447937836903,0.9236093125619519,-0.8218345637877382,0.5418993398438143,-1.6696305135930385,-0.4348186993285265,-0.7320003437289281
-1.5084987218722143,-0.2895954011018292,-1.7491559355201607,0.4472565189108844,0.5929952168218412,-0.4148098603092072,0.5289904407012471,0.882547511002028
2.746195592820302,-0.32099196023931253,-1.236899692754742,0.9043570302451784,-0.008545343966155462,-0.41772187642466596,0.9809591417088583,-1.992537686800609
0.35635247760998623,-1.0710873939136851,0.5801831215571689,0.25053379447702623,-0.41270996598976417,-1.2812894311536767,0.7516733723637147,1.2843272644708692
1.734278068121898,-0.6921036579806926,0.2719500718865202,0.2426518554827594,0.5442687000717726,-0.7608278705534476,0.2393484801304547,-0.06026848160808223
0.4393226335430972,0.6997870544349349,-0.18692631569617574,-2.404298298429296,0.6826961472559706,-0.19412217985992536,0.3082962230425262,0.1936425515350674
0.16895109680122536,-0.09621467221383255,-1.9076887279227162,-1.3776298504995965,-0.714783314008543,1.7062677253918714,0.49947062498523354,0.319564505134378
-0.009204085451401401,0.37041045874383594,-0.6496912703779677,1.4413149843943842,-1.7024447335195723,0.7126075186190591,0.17316114698743287,-0.16577444025010793
1.7452384460994597,-0.6555424771825039,0.09588321595306278,1.8561466947565277,0.32616162141598565,0.9860417515920753,0.17468589317049324,2.8731909832580977
-0.5512061151099534,-2.3005757184295383,-0.808606960432374,-1.8486443468340912,1.1907196187003317,0.9116914548238796,0.6276904640058962,0.7997696357643747
-0.7777316382780002,1.1344436146323447,0.6844224101556753,1.6232645594511557,-0.6157017435174802,-0.07434835974517227,-0.7404815398884304,-1.8621861162136473
-1.328569832577989,-0.85863059618392,0.8061688448119313,-0.4281596509996345,-0.22761159513634072,0.9568039779675789,-2.086174009566804,0.6195587047239379
-0.7975004757113893,-1.3694861902901576,-0.18439956300121949,-0.587120479243642,0.13768534763076026,0.5473175117935881,-0.540899940591067,-0.0302186104159218
0.3971558274712821,0.9416945254145691,-0.26305021489755254,-0.06777740631324707,0.6223621660720791,0.035616262305261395,0.5693285187900623,1.450576592564967
-0.510500687944958,-0.4106672056869642,0.08551847817476327,0.8017685096750046,-0.6370868266309239,1.326478124230285,-0.4717483024200863,-0.20911736612217327
0.7630442893109188,0.398295103375706,1.3598480852245605,1.3508056387624723,0.24478038704975755,0.5239427529144408,0.6574240171307976,0.3784056627082159
0.14272778156432728,0.23309235874006104,0.07463855603915132,-0.606579798159565,1.0834453184858661,-0.6174984684447542,0.2317079493358715,-0.10590440525698003
-1.2919202235981768,-0.40002626925351026,-0.3179349858303963,0.6844390471860359,0.7575025444675989,2.284766413553801,-0.1216807882959017,0.5302607552793769
0.5848000488416445,-0.7287134502515934,-0.9869753903816462,-0.12732195996330528,0.23889769388731044,0.2645115113105137,-2.2277492219959565,-2.1352068080669473
0.39476732798738134,0.5939321580195033,-0.3234208381587639,-0.7637411385907185,0.29135811151884017,-0.5980689897369228,-1.0199749388414436,-0.6726725120101668
1.0311835241647866,0.08914077778697847,-0.41390744513398675,1.712227331072432,1.4256683998743165,1.5683852486779124,0.687267606566094,-0.9574562064452673
-0.9579755719019593,0.02484809463168096,-0.9579418824435025,-0.5559895050897826,2.6825570406885277,-1.0304723948383814,0.5845534665836475,1.1903881041423725
0.41016016246888465,-2.2847316061716856,-0.660911330299107,-0.54487947930164,-1.531158291307078,0.8405421055435663,0.18248085096949665,0.012606237187889065
0.4474616576305539,-1.477567016956094,-1.2386576852297309,-0.44805133378196477,-0.22802719628933912,-0.48569612505529736,-0.25576189202564953,2.402248956798095
1.6064312871169768,0.8561536766543277,0.15162218986735243,-0.38130527984101587,-0.32488771666062904,1.2952243225122393,-0.19062057754253633,-0.08106757805258588
1.2142802882198123,-0.13444116953845853,0.16996540218092396,-0.12601822941839527,-0.1686389278585862,0.6219621602839537,-0.32725207306563586,-1.5545415081867169
0.14742626239651735,-1.032483529806114,0.18771013035482034,0.5201076907358038,-0.5176715889623744,0.9030395357575506,0.706549100608202,-0.121999557952389
-0.8865046961249998,1.185406199168413,0.04158583670375084,1.446713295187921,-0.2952351349085273,-1.0250915349508614,0.024540591106560154,2.5876521499051286
-1.2487789550037185,1.8599045719202874,0.5349736382553294,0.8378811366487582,0.6531422957993921,0.23765456083440242,-0.7882775995042068,0.7310220734820524
-1.2345302482808629,-0.7281132167686862,-0.11476724897134648,1.3182397420327103,-1.1254416602222244,-1.1028202097713276,0.20420263815592601,-0.3554845212732765
1.4923145583374307,-0.5276042699118212,0.4609233461855831,0.25116237113992645,-1.2304860800441384,-0.9820011249864345,-2.357450814138827,-0.16968470602842228
-0.44957398026485523,-0.3220370130997152,0.2846057525765111,-0.10186645428919847,1.3042153951489053,-0.38953154668744416,0.5627958529219093,-0.4032229006013917
0.8263677490144016,0.7744208300155566,-0.353386795099313,-2.8194240397913575,-0.2419611201038514,0.35653176558484423,1.0959065784485207,-1.6062538327894398
0.4093294599560247,-0.610084691169617,-0.7452361846988719,-0.3567365835830954,-1.519661585832223,-0.029379062792737106,-0.14974607454289388,-1.9308947922731365
0.060429595338891216,-0.543515904963858,1.018078931312076,0.4908265504026386,-0.5983801947662708,-1.2798569928360364,0.9043320084482902,-1.8753871542109632
0.2686519383567504,-1.2743332193240438,-1.7513326335265793,-0.587022216673548,1.7654560128327725,1.1413266899369316,-0.66743021056114,0.6102492091798732
-0.1896737540567561,-0.1583507306963607,1.4940146826094063,0.7227223103516683,-3.0708270752492632,-0.10123438713551425,-1.1924805303311476,-1.4122952557492245
0.9265533246968493,-0.4629708091761437,1.01577221865349,-1.4474000074841677,-1.3594383413990254,1.7436826938316792,1.6871164013406241,-0.8061579996871661
2.8544708414298374,-1.0291781444167194,-0.27587732956513067,0.1739214487956207,-0.8629990279398869,0.15786571315627732,0.6253931058243879,-0.44555434596562804
0.42179450649227124,-0.8182151566614112,0.5624918883287093,-1.3214408727300333,-1.7795022739543545,2.3206062310652684,-0.5740957492794304,0.48843919175884853
0.12019165686515,-0.5244861055626685,-0.6914771653424937,0.64926563715396,-0.16621577507573662,-1.1344363708286151,0.24715317428167297,-1.4709823779543862
-0.011131895564647368,-0.4499537394428895,0.9483332098479881,-0.9640270670702524,0.0974800495072869,0.7328245267808384,1.224494113743945,0.3301134001711186
-0.35236375771698886,0.3424902189241786,-0.38790221108049433,0.9859555449565828,-0.5633868282177846,0.8285810716754393,-1.5477475210955935,-0.1805933250713007
0.6571211515889626,-1.2589632628463325,0.6392237937596118,1.348305129893502,0.06327369993376333,-1.7225378535755256,-2.266151877232668,-1.4848609166212965
-1.229582054906825,0.9161091743642706,-0.12642628240052,-1.58450748146854,-0.002177395322759713,0.3773227465648408,0.5221619327438982,-2.0201057764374357
1.429119270012996,-0.32728951420462854,-0.04292807091164582,-1.2218219702082296,-0.8949810116837943,-0.08947799080388402,0.6098492038355239,-0.723651173060478
-2.204040116669129,-1.2270706268512244,-0.11764683788657736,0.7757430436976391,1.4710060499696689,0.29245706990792963,1.4214247578267327,-0.7487228338367156
1.8264840612227449,0.41028965098162856,0.4432797670895207,-0.2911050243790795,-0.5376165851295317,-0.33805759531540436,0.5781454119124937,0.8967245489676722
1.5579683035298173,-0.18504374337607823,-0.38757348829142974,0.2856522173554736,-0.2280134089603399,-0.03415040291407738,-0.3374573254129843,0.11923230258622114
0.49702265388201533,0.45499424223515955,0.7350109578490251,-0.06388694301030547,-1.4093302503014222,-0.4792005694172831,0.46136974784227724,-0.2119288899503198
0.2643720602971096,0.8793244091453838,-0.8928393739202615,0.16870369222345913,-0.20566942822245501,0.03377069270320529,2.0571241390185717,-1.0805473125068483
1.2708719637412393,0.6766780596610328,0.7867724741609194,1.535844083368355,0.21073862674109708,-0.27412628392238575,1.6814050468518653,1.1543682381692013
1.2864458015263567,-0.038766171280771755,0.41810917737046077,-0.07961544045316356,-0.6107404514159053,-0.8760382817089415,0.4052584249811352,-1.0801349455992397
-0.34806588318281395,0.5136315392861558,0.5004236582659158,-1.201677930952272,0.34795726115155134,-0.5179316138980085,-0.6733664742435537,-0.43471338487122835
0.40760978570533823,0.8187994240635507,-0.1257789611099965,0.318588683216644,0.6018534336276603,0.3922966023657567,-0.7843516085823931,-0.35663570671279304
-0.29566802487034005,1.5885310992334507,-0.2784623849647729,0.36967876019456614,0.5634444152153549,1.2934083863727772,-1.0873819393794453,-0.2972991808817556
1.8343072198935075,1.1566025300635752,1.7196201158199453,1.0196550817517445,-0.4409834189831051,0.48949268704110444,0.19244296386061205,-2.3795705018165973
0.1671583313221523,-1.1402994939622881,-1.5209714389570141,0.29389626333661967,-1.999546678572554,-1.1190662228205928,0.18474495619315745,-1.9738478242932955
0.1949994878810414,-1.5179430005807848,1.404159871893378,-0.5799211920573989,0.6068498555456779,1.6297782446897524,-1.484167615847345,-0.686563924167731
0.4110795499098324,0.5262067639920518,0.7150937734640553,0.5817576022370058,-0.9097952449519703,-0.4777879653290132,-0.9417143014622052,1.6184402087096614
2.037715683833103,-0.30538755938737694,-0.6439343593845192,-0.2144362823954115,1.4268951046822933,1.6505973670217295,-2.2331753681533892,0.5417102764284678
-0.3043611485771392,-1.1435558294720165,0.19373300136420518,-0.9184295385683414,0.7185876044403259,0.7782293367152077,-0.8155207725856998,1.2088638304629475
-1.7422222943231522,0.9781228357467675,0.059022074066758544,0.039978932267952086,0.34013794246094214,-1.6657383381519406,-1.9903715023354158,1.2425696228750742
-1.9836612495171122,0.04739908495081611,1.7834347742759324,-0.4813743873928344,0.34710643996365936,-0.6718566057672418,-0.06451104324197043,2.120391892801615
0.9819840815411616,0.38947327342354626,0.43945381416117,-0.1393260146624335,0.33924501055198525,1.28672473876247,-0.6770746345044858,0.44200218380535894
-0.32629546801986986,0.046503052967614825,0.4219011093730219,-0.3682355586530351,0.23032501678138195,0.2393430825926398,1.7421593980925876,-1.1029176727893448
0.013882003199116305,-1.026921977960991,-0.9522032787786532,-0.40493728283432506,1.3827864260267084,-1.207041552767514,-2.345345760586777,0.7862456987052074
0.4837633623322854,0.8150713439844999,0.8421420147988372,1.2529865072060284,-0.21038208928532393,0.4925010584067592,1.8361050829097842,1.6923445651877973
0.5381799989541232,0.4487466406621109,0.9287473382924909,-0.4679743160110898,-0.6564303395760436,-0.71799143567967,2.124550614903788,-0.21950552461112852
0.8477755157848045,1.3701954271240553,-0.7638295686702244,0.9339596231916028,-0.846125533008176,1.3323979929224394,0.34845236878098224,1.0705214840940696
0.7260922314804745,2.8786850280731193,-0.7888941743709597,0.4921903920795826,0.4889682195052809,-0.18972732879394266,0.6932829202149616,1.2320724649460784
1.1644355245434306,-0.5676232416610191,0.8172173198568659,-0.6303626439964971,-0.5092113866817994,1.2391324319944053,0.3543426664897591,-1.5780480389681406
-0.8403580144136111,-1.7362398254064486,0.9498798649764056,1.0770697355716286,-1.4398664350245465,0.6002632604337922,-0.7473409904266258,-0.5991573322676196
-0.03385828083089894,-0.4305044518294462,0.7937750507530832,0.44985390397233593,-0.29725299742404127,1.8577742335592873,0.1027651691239809,0.5862840633254472
-0.6897334233726337,1.439291562521063,-0.22553218942268505,0.771448576331453,2.2304605158407744,0.2887508086229856,0.6411822515384987,-0.603778444313483
0.00046900423877820904,-1.0822825091052912,-0.01525763475919593,-2.2146089975786585,-1.5869807106623572,-1.3277808587599524,-1.1082356747131625,0.54387743821216
0.09633385264517173,0.7296186841817437,-0.9619191026738142,-0.187974807375947,-0.21948964737437826,0.44666441664524015,-0.7215420469368106,0.6089506446531544
-0.17251877536128055,-0.0957919373925251,1.5068297588166037,0.06505292351071988,1.0781112563072122,1.836390836375882,1.2059642316347745,-1.2454169901558807
0.5349955377994523,0.3206933029761218,0.9033278116023513,2.9403062554709436,-0.9290308029083655,0.17961830454309435,0.6702558579000849,0.37436315796191194
1.1598396982625223,-1.019475318871537,0.12963429933617568,0.2376382398346651,-0.1325757627445337,-2.400041162889701,-0.7969770684490795,-0.4211569665994174
0.9547050019595308,-0.8087183813272093,-0.6963220749178662,-0.16154881517051778,-0.8839836403250473,0.004299086897555488,0.30191860892239913,-0.524315274166279
0.8379509879456292,-1.1888271369784547,0.34129649392418093,-0.5145178070681521,-0.25239080507857964,-1.2690784512574975,-0.5459628412063472,0.7183939715678278
1.2019247084238125,0.5509945107032524,-0.026400800097177258,0.8877411371378342,1.3925951801595926,0.0797086492645925,0.5064927440858012,-0.6934608041982905
0.108047459160221,0.043125359958163585,0.24761561395287968,0.8181204758773626,-1.35904447083446,0.5448634086695361,0.7850675542973552,0.8680934797802456
0.5572051968863418,-1.5876506562675448,-0.0176511737968966,-0.6629664932365206,-2.372003400236183,0.6281925186301961,0.9463554567529753,-0.5094586878300047
0.5274065390298897,2.508518946378209,1.7115597322652214,-0.6182138000008905,0.8791290458329127,-0.3313120263647787,0.3895918526849066,0.4283337299762987
-0.19095668006374575,1.1379171361864207,-0.3401813206418275,0.441055571153727,0.9671235156202465,0.09313808441642545,-1.3694218757969994,2.186128557730535
0.7739781249368003,0.020750684531284393,-0.9475709397964256,1.4308151667609608,0.34801931767691585,0.2209621168180671,1.0942494690648101,-2.4113728878859733
-0.34066323785534985,1.4053889113181408,1.4646234162677207,-0.41124012377772107,1.145469800210731,0.5907308408852406,0.724980338242942,0.5349134301126272
0.3572641490503206,-1.3018410727365952,1.6167980716768806,-0.7480780728506263,-1.4933078996592273,-1.5529702731998978,0.9963616895327267,1.300990019364085
-1.4892234464805028,-0.35021833515557327,-0.6724650518386363,-2.1394674302043266,0.40692078495733686,-0.32951466162547394,-0.10492556952276652,0.3307712400155774
0.09183401707187777,-1.6998456565302065,0.621052980431916,-0.682103678258061,0.9698703742866285,-1.6106781538181254,2.0817521792870135,-0.2735807786310068
0.6243106781092599,-0.9662926828005685,-0.23722442084170967,0.6375849526981521,-0.6775167659757608,0.8492998362096104,0.15347270139535654,1.6494042067175403
-0.9202199935781403,-1.1385209562591931,-0.07534491382545842,1.833577306894243,1.6637654009769214,0.16118992747641664,-0.28171722032556007,-0.8950647122638286
-0.8789457227404593,1.534363400759861,0.1921538512994655,-1.5663252632833078,1.5154754215673165,0.19250780007704113,0.39758397349524666,1.4549422812409694
0.1891091469494283,-0.14860199942085478,-1.1449672932479211,0.2720117747396297,0.36393642745051125,-0.2897484844539451,0.5609090838586552,-0.8116764506933136
-0.33442308511188923,0.7173827011092827,0.09929136060212165,-0.020092006482844565,0.05453259826979002,-0.03041234064434279,2.2396942583370456,1.6393640064421389
1.5088049137341244,-1.1106267124295726,-0.42322007864933836,0.6461684627195716,-0.39233563619278383,0.2687241991018639,1.1795816620691455,0.5752179635353671
-1.2214852640839726,-0.8073722987399424,0.00986208061922563,-1.4744372720772976,0.8444534860484997,-1.1047840980144101,1.0247898007564573,-0.5058415543984599
