0.8077960182216046,1.1996599785490636,0.7806259828795518,0.6401835661285771,-0.9430661919827243,0.8031484443675649,-1.674371287425562,-0.0821830737249162
0.8060987981727747,-1.695587208067049,0.22383753831324915,-0.008446290340273225,2.6234335231590933,-0.7987921411875981,0.7416613805677785,1.7227377337775671
0.3524325460883847,-0.2719738265965442,0.3620387889312944,0.1929494701465243,-0.906041114591576,-1.0692090576349358,-0.3837820604473327,-0.302660689335612
0.6152202865461941,-1.676830151084701,0.391998941530847,0.4202717940107773,0.11568792722153651,-0.5342029966967823,0.38780592279935616,-1.024739903498329
-1.8622523162451736,1.0147338403740496,-0.5261326594862951,1.1876578911748092,0.1551500840377065,0.030808999801233642,-0.05565133620496737,1.0037088707879414
-0.4836053464718786,0.6545592013723651,-0.0816247780898382,1.1179781420617398,2.287818422332653,-0.9300129753500346,-0.5776395349742685,0.1076143266288818
-1.4397605678711494,3.0893712510245717,0.48656754099893296,0.903480371999647,-0.5318014215874801,-0.5402485975101523,0.8658316444188346,0.35569731090514173
0.23306700013579487,0.5952206469520581,-1.336470126680561,0.32877521023092016,0.12376299071871966,-0.29373813410873495,0.2724744692500508,2.12389246262164
-0.02448963722019185,-1.1664333829148295,-0.09477413609559661,-0.6493240528960913,-0.29313297915002323,1.4658398381521114,0.02065436964387728,-1.149597076666837
1.3592315528707883,-1.5214590533228507,-0.4615120226843154,-0.7987222606368382,0.4433876883125994,-1.0823329565687183,-1.0672096935130693,0.7275840328043746
0.7748087189304954,-1.1488757065112347,0.6987517217121313,0.21056305115413868,0.5963218049633481,0.7349581018382993,-2.608036797953608,-1.27536324551255
-0.5236349524563826,0.2414495412811718,0.7025375635974849,1.3149528753315192,-0.44545928538624824,-1.0747966445804364,-0.9440712918331493,0.06901822357161963
0.6565869514934005,-0.12465533085940256,-0.8307421316705997,1.8683039843787541,0.07971693018733635,1.172941977245644,-0.22709301605910354,0.2992701492817114
-1.2926381345349975,-2.287807113042375,1.1543961745783344,0.5539611999502815,0.2861335799217296,-1.0403982296042658,-0.4518416249665125,-1.8693780512073133
0.7888856599887211,-1.9991774770436543,-0.6837461906264701,1.1948833934930667,-0.5130091338230502,-0.2235629812920241,1.0676426419169023,1.8571336893026182
-0.55109333625114,2.2211871392624074,-1.0183103162909182,-1.3387552055037542,-0.23636031559834242,-0.19870543874812754,0.5123960142062679,-1.0141305300458014
-0.0743502598454509,0.15938439560884474,0.7938336244838251,-1.7021653937540484,0.6114007927891787,0.938516998848692,-0.4328587088812927,-0.3705048886288089
2.9893001959007885,-0.05212681138353408,-1.0784116976167382,1.6508829816088728,-0.7740833168930735,-1.0652324074418713,-2.0951568287171494,0.5364927281773457
-0.7892388811963437,0.6597146908365689,-0.08031323053309938,-0.9128542147637777,-0.7495116092830219,0.8607556844753176,0.8338643234803711,0.6460868713668126
-0.3555307305147752,1.1768932896313264,-0.7240116280797646,-0.6155971619966274,-0.6550659505388914,-3.7841305313694873,-0.08565047087790885,0.8031202228130545
0.2977506019503576,-0.15506604148578496,0.9817979315564964,0.5310059167683483,0.12408825230038996,-0.15696779937183253,-0.1540634377673649,-1.2518908014976737
-1.08843631746737,0.3263615604778044,0.9450888953403933,0.2381904407714211,-0.3923308042156196,1.3064238391830327,-0.38916680639133416,0.7302731864253039
0.14444417873371687,-3.83720676209336,0.37042764970231984,1.9623142222443555,1.6291600981234309,-0.7787788119057226,-0.3164029233923263,0.47233050329269216
-1.0566657745581125,-0.3678832182442352,-0.23525682611352405,0.43521007527180905,0.4979818151141792,-0.0669849686381774,-0.4182947893561188,0.5926530072368528
1.206143018241998,0.6179336315025059,-0.8308491202135969,-1.1940004460504736,1.2965393458997547,-0.7809869439227839,-1.1030632192620708,0.7340689350057555
-1.118220891831745,1.0558382843722114,-1.2051594799948044,-0.4808389468035459,-0.2801580975632663,-0.09944183804898168,-0.23971779546314648,0.5137423387653494
-0.608007296602177,0.5946184195223705,-1.0438514333341855,-0.4287277537588511,-0.5232782538629066,-1.3962363129310194,0.11976922964566286,0.647696031786377
0.5200515309495962,-0.25125166425868434,0.9474370678370505,1.1878403850325494,0.4402003693419781,1.33355556244701,-0.46519415918511264,-0.009096805776323479
-0.7247599194831641,0.8037313397714562,1.096156128614781,-0.521797887736936,-0.9287786649383314,-0.7501285070583156,-0.7698907984291473,-0.48810019775365454
-1.4173955567312602,-0.12492980774873583,-0.3680009734740895,-1.0480644098261127,0.29550766042858334,-0.5519850983703289,-0.16695148392115802,0.2793273846277966
-0.8842919965635311,1.0987821233042445,-0.8772310215517154,-1.8745567467524757,-0.6087569986757585,-1.3597942417523485,-1.146989490084412,1.7025306623471068
-0.5464662990233708,0.5820032291376648,1.3210942132582775,-0.8247859645499942,1.8717587170175196,0.655883275081969,0.6360695905375674,1.3780543394900349
0.4907035763552586,-0.4015727946465384,-0.3179395112346584,0.09918669660561236,0.17258674430827473,0.09199089169431529,-0.5011052982426777,-1.136112209717494
-1.933069085271389,0.7298692888624566,-1.69731925290027,0.3222606089945657,-0.6817419383964622,-1.8549175026336724,-0.8031557663923654,-1.6799713517570611
-0.33787505659480577,-0.04124723174642624,-1.6270393048186114,1.1853086999240154,-2.4043708582633356,0.3926793873117224,0.9860234935987302,2.83862921067813
1.2453313390994138,1.7921775417279013,-0.3865345375385043,-1.4419908749645372,0.8135643504011114,-1.4707116815022465,-0.5320405782218897,-1.135316450341169
0.7281155927394024,0.9682827175048655,0.6256578151421196,0.9155594379668028,-1.0133107194995785,0.07377956749451987,-1.7471700525797789,-0.13900421376578212
-0.6896660873307637,1.744733545622041,1.412317228546594,-0.5209220677279498,0.9473401905006731,0.06782151865042199,0.9065106669912635,-0.363529313872653
-2.3196313486486817,0.5780981510183066,0.8901730887981787,-0.49931103157562096,-0.8479917087998033,0.588840230594251,-0.32518387805157534,0.6572818822882934
-0.36651944803212905,-0.07774145396480815,1.138190021004731,0.9178542686706066,0.052564848256373566,0.5052481552165643,0.2625845728036169,-0.9737829757352208
0.7320913721566676,-0.35737522340526323,0.538441990180163,-0.919116158870762,1.4206871456467065,0.23722216391852233,-0.26452219756354745,1.366574653367608
0.9855109406260393,0.787724822325227,-0.02799089534338141,0.7725187583956917,1.2529287248034184,0.800340272043811,1.4938535715895682,-0.83003689698
0.5229943705800737,-0.3899815597392239,-1.0741938991845117,0.19214550613313147,0.6412146944785057,0.1508008145122778,-0.15439783003711646,0.4365233884610322
-0.1392367539707877,1.5656275304738214,0.2737923206033423,0.08726687403415267,-0.37024733388857184,-0.13536903289427724,-0.5425810195935353,0.17260886648286983
0.6180186093801441,-0.6837701216821913,-0.5567641336527169,-0.36059625945391743,-0.5678694999988732,-2.4548382552276156,-1.2699733798619763,0.3756011301967158
-0.5974071493522585,-0.09952958023620874,1.493013343846164,1.721662969202017,-0.6273194549840687,-1.8261905387634207,-1.6007742699392218,0.7262695631030829
-1.7678429904975925,-0.12425028001252243,-0.15077744352521794,-1.35627807558903,0.4513354466296695,1.5420892907997175,-0.8340814620335653,1.4737065752227259
1.588255590119403,-0.35227440930694814,0.7270940156947358,-0.5194705122595522,0.8989304137458225,-0.5002169099197611,2.510553980674408,-1.0484357203749681
-1.3682398705392975,0.3593860998125574,1.6454511465146135,0.38919706721956426,1.9336153692822657,-0.17478328927426656,-0.22910699744464136,-0.3593173496482302
0.6817970508063488,0.28896075303168545,-1.4522254622981572,0.8367203327721465,0.6157867696390975,0.8662724252970113,-0.461036489827316,0.7614167982784218
1.7566860486497275,0.5577134905138857,0.6583627315885601,1.31316738763868,-0.3444476480263718,0.2074620762093275,-0.35158284490135805,-2.078400893593666
0.48274110383353525,-0.986383870698506,1.467078212914999,-0.34543958749710896,-1.0471455033109722,-0.2981633320305824,0.20621953864832507,-0.33221894611567004
1.101556424758976,0.7992719401848041,-0.6965750693434597,-0.4072577511266033,0.4394015213596764,0.6224699286697595,2.103870207517447,0.5632424101461398
-0.8555101663343041,0.051144947519598506,0.7099407795145891,0.4146047676349036,0.049395299174755755,-0.11605479277017199,0.5955473217193025,1.0341523566026904
-0.15464255106181776,1.891550306385827,-2.095183214756547,-0.2584475862823423,-0.45470013676981186,-2.017391506611483,-0.5643248961179557,0.5329351976776362
-1.4306758264182464,-0.8222428351081323,-1.7750648186541391,0.39762772148093345,1.2053215036355194,-1.321869913481336,0.8973443872672666,0.3196299016450893
0.8079074525701047,-0.6996460057846461,-0.3364056583727516,-0.7249723745246944,0.6464896891638627,-0.7641451317242298,0.3380375029140503,0.8246931456821666
0.13922959581849048,0.20537857905694382,0.0956870155430043,0.5225972519720972,0.7716570341173625,0.5269299904504202,0.09645737733986819,0.037769654294362354
-0.8418763347231671,0.17845839229953006,1.8593507206292763,-0.6901048731906185,1.6092713251453996,0.044068630450425035,0.7296208249326825,0.2951101713450375
1.0455968677734504,-0.10664421303338664,-1.0224628905634934,0.4434290595408722,-0.5494945799142689,0.3378726517930864,-1.0881441618250924,0.9827476672929523
1.0952850833397623,-0.1605525808341817,-0.3308477809255303,0.022870299780552304,-0.45439188528282476,-0.0660736287417124,0.21565670940755202,-0.8675904925173668
0.5206521589329006,-0.7004038207124602,1.1496651436712786,-0.4060988279313498,0.04303837327236932,-0.3517009900324622,0.08036210568602008,-0.2044407280628821
0.03712740006130177,0.5917696511711845,-0.32688707749063495,1.66259454617354,-1.0007255959414103,1.9407729440120978,-0.1270163326559946,-2.1308233748121497
-0.19013216602801622,-1.6513610075192293,-0.41651653088303614,-0.45481569638574276,-0.14316279394606732,-0.35741180519714466,0.9953501553101469,0.0004865022570242447
1.2574844621139762,0.4548870206479215,0.08581101944844165,-0.9889289245348082,-0.10062537824245887,-0.024333881115033942,0.7455189317730977,-0.9350172382522066
0.8924175575260856,-0.31060800950843814,1.5239023717619768,0.7181306017112042,0.2918320080142293,0.38877712975526324,0.6859044523730485,-0.5401721119250023
0.2537247301051541,0.7114279782299539,1.6747524529819475,0.00829562641999429,-0.6744079312235358,0.8204404745189303,-1.156723395571727,-0.2601632945377157
-0.6105818240604781,-1.813209664860333,0.3494030056807847,-1.5506811485725083,-0.42345745296749276,1.324531168589676,0.3652868146512368,1.349245652496254
-3.282560032157064,-0.3163614536602822,0.08930242755635916,-1.1335460918528188,0.9965461978056261,-2.0792158302009183,-1.1322335826343073,-0.9383179506946828
0.13459072185579532,1.115006636420296,0.6281973107701218,1.42961795613949,-0.25099628719218897,-0.8816736112894175,0.7622990817209443,0.07411108825206476
-1.4339683071661606,-0.981491220731481,-1.2091858671334146,-0.5603832366022423,-0.15704070578482154,0.9361137923735866,2.1524558307755552,0.6936144105903688
0.5545228659039995,0.06016039044983529,1.3778283362956867,0.5070983935080055,-0.16693950836607402,0.739869471655236,0.3084854924113959,1.3066759387195537
0.17143261599301807,-0.40471293467546693,1.2225352919390071,-0.1837128506783352,-0.32312025847034925,-0.42456762929632874,0.875635616127715,-0.41860001103682637
1.236654881507494,0.27482868548997624,-0.8458410700331287,-0.42344163474407553,1.2389950009164767,2.202752247189834,-0.6393815420574686,0.8997447388191896
-0.6818598142832294,-0.9789318057126905,0.21941789488509245,0.8030468236000575,-0.1174043485003761,-0.25361676113891624,0.2489129550926752,-0.8948561462214583
-0.6112135923989102,-1.0119196336406011,0.16742100278958788,0.3686437298284147,-1.1873022651325378,-0.35371837566258046,0.7922495940222546,-0.10800590770203498
0.18081972393273113,-1.3742841973178266,1.914159786446972,0.6951554183570776,-1.4813609296962347,1.7168636468831688,-0.14188090790929297,-1.635058680191519
0.8089980855742792,0.09727871648095386,-0.6629698904342819,-2.2574169086135147,-0.6126085619506944,-0.8824209504592164,0.5902946288242649,1.1802164287570147
0.21655303715236054,-0.09943353129360835,0.6617719439906694,0.29155013135821445,-0.7697217640372804,-1.953150825269795,-0.11026805342392279,0.03670623698958997
0.6415246130358395,1.7396227891539187,-0.914688052834781,-0.09948525005386423,-1.2712583116244518,0.29642023462413425,0.01800499048964484,-0.7329783486894818
1.1469816042826966,0.2687393602373429,-0.14829297794189084,-1.4542843536450385,-0.7093684328749998,0.2366210638624083,0.8453511477800024,0.8108956680623048
-0.45840483683607525,0.30149100339612356,-2.2426010818298505,1.843486139106725,-0.621423722478541,-0.5314485886184706,-0.9071022954429391,-0.23509667576031573
0.4221758006558777,0.7629695426184651,-0.36339707423055995,1.1692041156867683,-0.4531557287708763,-2.036582806265148,0.873330564020453,0.051676654675390905
-0.9091494814402414,-1.5627937451290077,0.4430087719027609,-1.2522989854039033,-1.3907563572496455,0.924181372609364,-0.4472833616441173,-1.4125376170481656
-1.3907120047482493,2.8283548869217126,-1.8355628327402447,0.35586183058486814,-0.6026712423029674,-0.12762165562434513,1.3364519442104759,1.1210489028014443
-1.758085603963125,0.9510847812273377,0.6937103117891175,-0.24610339504280151,1.049273817052686,1.0003411300939715,-0.5072005809778602,-1.313409192115408
0.3917139501579892,-1.124149935932679,1.7248288597885817,1.4238326524964926,-0.9494642428741226,0.4092556880917914,0.5675945344718816,-0.35210533104089003
-0.7902522568029194,0.3791063541760655,-1.2051355314763235,1.4106058980660108,-0.6763643237080336,-1.3703545994954607,-0.2969871426545005,0.9303054508893227
1.5627107411647276,-0.7868213523033998,0.5438478443413206,-0.6103788145074457,1.1316046450524238,-0.96288404927985,2.1477615158313768,-1.3716489439938147
0.7673592318095336,0.15753319982271533,1.547827934366407,-0.0004712984043837632,1.0031073259607717,0.07354144512872052,-0.4134782228124549,0.1831698916930504
1.0351177563130196,0.1581861049647941,-0.5371802457455948,-1.1550845232513967,0.825121599672318,0.9716501479681903,-0.9982656113206081,2.5608263200137293
-0.12363031441992485,-0.5838284148111714,0.8917905498042743,-0.9408931525334615,1.4336607760642788,-0.5646118431091263,-1.1809539965933902,0.6974399126725908
0.9502979691651909,0.999515418701677,0.34264599793550243,-1.6257222564936231,0.5413372069107553,-1.2879046401425183,0.26659702947670205,1.2411123830121848
0.2817279062368358,-0.9011530962932803,-0.9490699267114697,-1.4754249630006784,1.8492799530783306,0.9820569378873689,0.46626351734638616,-1.4980780332411079
1.1410868577108892,0.38119473415839766,-0.4214179681917307,2.6902713899473913,-1.1972559524446165,-0.369472924902208,0.25115955334692935,-1.3313250891021975
0.042233936248990696,-1.3792712260746551,-0.5206403890413127,-0.5448722870935285,0.17900116410084269,0.9106324454098573,-0.03800781443254592,-2.1996845733065813
1.632991340776084,1.3846281940504586,-0.19545292880537465,1.7442734045949526,-0.7866426530929651,1.7545543896059437,-0.5690599534529719,0.2559252864401259
0.5876681948839273,-1.5298317933193368,1.1065715781920409,-1.2660923379971674,-0.5612477196848955,-0.6999945404536857,-0.8439996221632993,-0.4834280653646163
-1.1097750437575216,0.08389054472452348,0.13602021402998343,-0.7335660710071188,-0.7056206837687365,3.2329519807267024,-0.6193672097261937,-0.7339839387853009
-0.9080649691003988,-0.4090784608858294,-0.6919787191287028,-0.40028079134418465,-0.9812519518061829,0.3815336928517442,-0.4374996033308108,2.5823358929399225
0.6787579517746849,-0.8424769667382748,-0.2853811568293643,0.3545483394832357,0.16985637872923298,-0.1461801215793148,-0.3234127855432928,0.23034850660989725
1.1452749270952034,2.2676792696426737,0.6574211620154307,0.2529896811720645,0.40326765108567314,-1.5924203302163111,0.360356745132394,-0.2984359300845226
-0.5919212424358792,0.5477629690308161,1.5834229173090095,-1.3398223001441787,-0.13562609351173194,1.8009459050091945,0.31054872772784387,0.2540107878391114
2.638939380708709,1.3239887460941009,0.496886010148933,1.6408934099161312,-0.9278747955032036,-0.3215097296237644,-0.2463022648770838,0.16729578383845273
0.4653810047464377,1.2922243769008008,-0.06945169578986925,0.10312968049601223,0.9253442451399969,0.09436534550166088,0.26418008878883775,-1.1591818558425802
-1.718845043954197,1.28550090690168,1.411094003738568,-1.8095666760931577,0.36246120259548636,-0.9295764876461267,1.3670326487935338,-0.745261501228377
-1.680118497870085,-0.7134512415696261,-0.40413776923124106,0.9097534991116663,-1.399218806420361,-1.4914567931125309,-0.10406370292694726,0.2552936939035284
1.3783820801522588,0.40215360135755784,0.27351025341334007,-0.2490642395215401,-0.35654052508015033,0.4182610232704688,-0.04003375201295328,0.8499273360877285
-2.034480910276183,0.9094109361830307,-0.485424050080686,0.8325192708140553,-0.17359674036526093,0.7379198099989488,-1.227150280386696,0.11730044524130452
-0.5084215258162103,1.0439178240716465,-0.21053642739398085,1.0837435296755993,0.2559799409893115,0.6109871352728418,1.6603702233432447,-0.23049340011737082
-1.3413935651401305,-0.5721962270387199,0.4315565646040936,-0.3895378661076655,-0.37405222812016964,-0.8877256503365398,1.0888889439681397,-0.5159647333551504
-0.11476570234607232,-0.7754013229152867,0.5209141658049985,0.20578965156144252,0.1762128331917044,0.30940447110638314,0.4665349648155783,1.2327139617405813
-1.0257995350179718,-0.5624453392253069,0.9985429619013335,-0.11232599515110986,-1.247211279838851,-0.33317485168194977,0.35939759011238986,0.07272407510347843
0.8213561902152989,-0.6255465647091858,1.6467658888706014,-1.4084737325402048,0.05794638647540957,1.0675145341319172,0.0771140625042053,0.24161684682627071
-0.4527213224995122,-1.145635395913301,0.9011764916101005,-0.7625441985794029,0.4553270302689727,0.4261232233839194,-0.41966319463403595,-0.3633905837572966
0.8423470146393627,1.3636866149117364,0.378154454684122,-1.2791076723315984,-1.1302277895451232,0.6022423682507659,-0.17632710531805837,-1.1118929634158115
0.0015449706112408848,1.3199818203827853,0.20496124412064606,0.6522283886094392,0.2719131273940541,0.126613034031475,0.23276439493849863,0.44715189803568994
0.04956998827562119,-0.11885685872621493,-0.23373772630028009,0.5587325237051841,-1.1861365419876237,0.14248687022883733,-0.5109211724073813,-0.30463606039937563
-0.9790917998925097,-0.32962510272810097,0.836511311278038,-0.6487488756604622,-0.6809899196370002,-0.7838433952737245,0.8599220558225823,1.1604319003016186
-0.13042730699895597,0.7794406583773075,0.41532219342359783,-0.9025047427722303,2.1338522426332003,-0.06399144587549555,0.3788326600219522,-0.43603601170791767
1.3078276070429267,0.031881163692491124,-0.2720741316412771,1.1767238523575998,-0.9990841575122422,0.2535842731387796,-0.4203604705917526,1.3529526903362672
-0.7019911376555692,-1.2560847904932144,-1.4586067030456542,-1.6439227416933557,-0.0003452236251324697,0.14635998441511036,-1.6866751598014345,-0.4167517279410911
0.634123975822059,-1.2096379351604156,1.0781849635656482,-1.0076841662073976,-0.5557042282606098,0.6111409591376898,-0.28309926934137286,0.5987047642777552
-0.3449649870509934,-0.03755559389993723,1.553223928300794,-0.43729195651364117,1.2377669186560152,0.5578386477147418,1.507134101118726,-0.31361702653867735
2.451138065420351,0.32383620872404606,-0.33458100032348026,1.1787687748945168,3.1568741289765505,-1.0967560874517226,0.06179912587793939,1.14174188057665
-0.22037615345982137,-0.9452171926078372,-1.2565731053820894,0.6422618388522366,0.268469779568127,-1.5889650873678949,-1.6694705715016471,0.39501353908784725
-1.3573473464500792,0.8405968254929438,0.909859042712213,-0.8890925325812474,-0.17471260104642014,-0.07518117462206979,-0.7159840454651175,0.7534708139938887
0.7366554866221865,0.06827924108308993,0.7130391842899177,-0.24543021480224858,-1.099611029858331,-1.4198544199485275,0.5641565815708055,0.5286406703160822
-0.20733569794311763,0.8261262281073263,-0.17428946149838917,-0.08515578887661909,0.15715800431536556,1.133521263928908,0.4192607066284109,-1.6948020087811948
1.2262010174053815,-1.083994170738341,-0.2223769834592475,0.8383277938159818,0.10276599530166299,0.04372025108777892,-0.896713464317815,2.6480219385363855
0.11967288034413473,-0.3299918722145891,1.3579638932807307,1.935077845016958,-1.8810273549405165,-0.38791640059760474,-0.9307398195073883,0.3543070063145651
0.8526145737205103,0.2287908120405211,0.012931433956979132,0.09352552869390969,-0.07531024958277852,1.7061410353381539,-0.7829368025398924,0.3943644471336218
-0.17252474007175347,-0.06518035314442418,0.6496562925568888,-0.13248436236761268,-0.45687228770754984,-2.267306883720721,1.235051674868454,-0.07658764466316757
-0.9291318427214532,1.5263236983502844,1.8130591956378808,0.11626638760566065,-1.3141795608455893,-0.9705483161998129,0.022160659104184625,-0.6957508129797305
0.6519888844425115,0.44306929160587644,-0.42254183089090885,0.3509008383038992,-0.37360027232524434,1.1912153791595776,1.0241359092773166,-0.6481830483569554
-1.1865888836653824,2.2581704047892446,-0.5932239155500291,0.044156224308871866,-0.8310735284456597,-0.660021527379274,-0.08433130792243314,2.275664364400684
0.5205783715049837,-0.05477743725016541,-1.391309077946196,-0.9767327176528298,2.3621710328845773,0.30292286779138045,0.04860511155016593,0.29987449491694496
0.5797764814525074,0.9070873986731067,-0.8980093531944002,0.705351838522596,1.1594091582655974,-0.2693375091819011,0.90600625229123,1.5738152994131167
-1.311358023304804,1.0329288735838216,-1.0337231892490562,-0.09023267198233276,0.7271088484543247,-0.9975482541518741,-0.0688007892885877,-0.41344800306687235
-0.7077019813956684,-1.6291954217212958,-0.07797050180138232,-1.4090474465829261,1.2131574804162837,-0.20115210120165047,0.9471493838447782,0.5415500916788685
0.6035649105000115,-1.5105077689451751,1.3108464481330342,1.0522416311991092,0.5964402960086119,0.21604300684826436,-0.045266354030061226,0.3816499509846555
-1.0811189596220725,0.9895981958016296,2.261476682158323,0.49394495727123844,2.452983516699861,1.4263021496116783,0.06591410113782548,2.0129587872048886
-0.07227797760789836,0.458423160504943,-2.2853677015794482,0.4959204049068096,-0.22637482630636718,-2.2049963807618975,-1.5043770287008713,-0.3941527725022063
1.0061419645933252,0.06889747996790575,-0.31607944003187294,1.6045561223924945,1.1734925762782102,0.2952073359604598,0.0001576845561487813,-0.8608478992191332
0.8913112339686827,0.5057155348103259,1.343359779807538,-0.4037812490275532,0.29523949128303345,1.0001208124219163,-0.23658336846844052,-0.34779238277994834
-0.1668136108812625,-0.5826052283245884,-0.13413478258975864,-1.356952842842666,-2.1963184665459687,-1.065470089349882,1.1664542621437286,-0.9438945229232742
0.3096169279874497,0.5657426418603243,0.587323583055691,-0.9563033817176859,-0.9839484842645125,0.9950813222224837,0.2195442268389374,-1.357238911384781
-0.2858266140921371,0.16894231470988866,-0.8381469499170286,-0.8713762255708728,-0.5830048034226177,0.1575965719668103,1.0512278913954958,-0.5409412387404906
0.03663263086426745,-0.19880613798100888,-0.2327018916776241,0.29076816438176367,0.7106999418974101,0.6737400226826683,1.0145045579292813,-0.5589484178442317
-0.4974475411434461,-1.0150829784868731,-0.2355577351775623,-1.2913629358170924,0.7035691470616321,-0.3442108475042482,0.8787690091529284,-0.26919067033143207
-0.616375208497181,-0.12650996343124893,0.34899076353256886,-1.7055191089989656,-2.048290563121311,-0.2555624261287152,-0.03686533253266838,-0.26386141650062567
-0.7149899441349135,-1.040271613140057,-0.17677503133809264,2.026972954016012,0.12577468170067485,-1.1728307210356343,0.2938207646679749,-0.6777661317256987
-0.2743928461048964,-0.508217914045235,0.5955090169441681,0.8492951623329612,-0.1178260590310703,0.10276960195902882,1.5546381487768335,0.28527087144461016
0.10937019791434076,-0.21722058872771288,0.22943480083770731,-0.19240761804438095,-0.7940277693032506,-0.8347967187856012,1.0712766113327266,0.018897865894473766
-0.6605628285617869,0.49004964180945215,-2.4723769225221144,1.241433201975337,0.6658344473971232,0.3850340995756755,0.28285029616104923,2.7550311025364103
-0.6289216834740631,0.6423204340731953,1.3590559183260071,0.04171758118073488,1.411160146356887,-1.6093281191558089,-0.6170463424873693,-0.39169056383026446
1.0873362363880903,-1.1415630966773032,-0.8976206286944329,-0.6393992663446915,0.0978073732493834,0.7593168444685459,-0.34834099610970676,1.7640190664630397
0.6247907384577032,0.51892388106411,0.2235067680649557,1.3582824768152875,1.2906977755695668,0.6473033215188004,-0.7299685174333661,0.7424096331414055
-0.6689276629265543,-0.06726518130652563,-0.8089062339034511,0.2442552576801334,-1.7023461290212738,1.6576645034641049,0.1073367395746245,0.8733706699653451
-0.3668299828653913,0.6225691099393704,-1.0894403513762305,0.4222208720747533,-0.6628385053863429,-1.126690663866933,-2.2727474361384483,-0.5754585563958485
-0.6526629705836501,0.012948633998075583,-0.22294742375484577,-0.7310808986676481,-1.5455378918799527,-0.6024306653851036,0.5759256535463704,-0.8074606741998698
-0.21185479578680289,0.16434595431128732,0.49402584303397534,-0.05919453038973644,1.0469020317805313,-0.17390900527088213,0.3104150361570016,-0.9334879198611816
-1.9668590185180748,0.935456503872571,0.4636909094664842,0.1425169002693157,-0.2565742415717047,-0.2508729927175687,1.9678994135951213,0.29216549035482414
0.2863916475188909,0.28654133996061293,0.2927014533484459,-1.4548067959302295,-0.47533196268438366,0.5108839493494292,-0.4082510822753675,-0.10908193805557072
1.5598549583041679,0.9782735372318906,0.6118606827966581,1.5938314961588709,-1.27159638922881,-1.6149880263668874,0.7779336087356755,-0.35171260017760053
-1.2136983615224781,0.5855526412304324,0.146835044096963,-0.43374235079512163,-0.339854853469741,-0.6892188129661758,-0.23515226016591637,-1.1677122667976123
-0.9718817664673784,0.9773191640024078,0.3264019298158928,1.3484470811360676,-0.18715605397554416,1.4570498286101816,-0.7317570799330383,0.22918190197314386
-0.1416832702204173,-1.4141417143283024,0.7652324379257659,1.226145866931123,-0.10335209612632794,-0.16167773632996701,-1.8071321994056926,0.524850930710848
-0.24637597256704277,0.5279541112929775,0.26052650490684015,-0.36046805169333407,-0.7304603793278083,-0.3732946155100765,-0.4543524070678362,1.0450106690567051
0.6532151005318774,0.8914320046694778,0.6439092861939784,0.9178380036507031,-0.10559227217805163,-1.0443158496700433,0.41733970429422346,-0.8647689884962126
-0.815170923245488,0.35211322331901657,0.0763444290407104,-1.051876011985117,1.2776610889927145,1.179046023105446,-2.122993983534486,-1.2564891064812438
-0.13248740967741227,-1.4729684453772816,-1.233431711243698,-0.011492261071250941,-0.7441727198742252,0.7240896300296212,-0.8621901008989278,0.7818053467413053
2.702637191758177,-1.1778264459621792,0.5905939904616727,-0.3813048176146804,-0.8200368808230962,1.666127273436934,-0.19436460763228924,0.3402247071031853
0.3246297948681557,0.4153211972309869,1.0743789706380025,1.478768479913989,0.028843283220541853,-1.0767405097539477,2.3052221522814467,-1.3932747844269495
0.6000218220026736,0.6790220109389106,-1.519428264186405,-0.724701732413712,0.8958232547324388,-0.45833317136331303,-0.6408704914201465,0.43983236647368673
-0.29977246839400823,-1.9755768913014955,0.17281406464349403,0.958871610837717,-0.8519961721458397,1.0245886567481295,-0.3350054782683037,0.15220059466353697
-0.46946381750578,-0.2941261800359864,-1.029663362668175,-0.7364816645908642,-0.9883279092490709,-0.7131663532751668,-1.8269748457201263,1.2788520212990153
0.8915439500915097,0.7992983386079097,-0.23254257602367723,0.7301712600791409,-0.564848641347577,-1.1374081269911762,1.9918917405056673,-0.6608661959930325
0.6875809865636523,-0.005088349509752975,0.930311628457202,-0.1965208500024667,0.6243116189831172,0.8196059929448504,1.9621773153143032,1.8872552080260048
0.5644563231859709,-0.3751907746827204,1.0251724700198668,0.8844992555728306,-1.1084314796292465,-0.436244749174147,0.9504680440321545,-0.04471963197582688
-0.024682313158634818,0.889783052497063,1.1052949880247367,-0.8397839372638994,-0.5281366369195005,-1.6558427018537243,-0.06347583005592922,-0.9184018939338006
0.01267265422837507,-0.18409429632742583,0.14016542620853695,-0.4155509860340492,0.24558260178826782,0.39853282508321364,0.04900594979546643,0.39313262756835876
0.1289641712137051,1.8258210265988266,-1.366349401716811,-0.4301427734699207,0.796084899448103,0.008519368488014031,-0.9066733428295506,-0.8353859475373815
-0.08184926816358036,-0.16559502061120465,0.2254429530606193,0.43128581382592174,-0.2761247420165308,-0.36835284936315904,-0.777863138029753,-0.6523014744811847
2.383355692988909,0.8495051477019122,1.942688280494718,1.059200610952849,-0.647099392184033,-1.1892396707710815,-1.0939168838478777,0.4677720155092736
0.487037221847804,0.6069208235891884,-1.5156185901441255,-0.17327519892496573,-1.2554626918416132,-0.9917939321539905,-0.2056641162322382,-0.0206594026731089
0.2274691121438435,-0.4407547034569571,-0.3335349430903059,-0.08128477111624363,0.5828295209201027,0.703981060923405,-1.1378312268513395,-1.794357710976216
1.7713448517300532,0.5151124792235872,1.258593480630944,0.9342460959590753,-1.4890700637298269,3.192455654513173,1.4615306135644426,-0.26398463194224236
0.28604462853291496,-0.1609759168332089,-0.7049969923294643,1.234762318075951,-0.918580080963762,-0.0631266320042353,-0.48784608940697993,-1.1755993592336367
-0.6306378641698126,-2.0055203247691376,-0.35342827197869997,-0.3258493793887298,-2.753007744937426,-1.2580396106987588,-0.3945641159317818,2.766115600929895
1.3728277059797593,0.1748189712266445,-0.8490354691144861,0.4222122570444424,-1.0120998365227498,-1.7621064031535008,-0.3470961859606653,-0.8265591450807932
-0.7215006284055141,-0.33974917154202394,-1.7232613879372645,-1.8467814016944577,1.0086732657490607,0.5458736143571837,-1.0792243070479983,0.0683003365100754
-1.0866245595268573,1.707579687747542,0.2242698293759124,-0.5506144784609056,-0.6321690186643616,0.3172846558244806,1.6671485934741288,1.3684862778122475
-0.28922183932894213,-0.12232379246139807,1.5905279875926228,1.6619866181384306,0.6630486854776091,-0.252165367539427,-1.1390873006700908,0.5597974280193815
0.6525905285064306,0.8674787243456258,0.37926236219873455,-0.10361441828209489,-0.15703907622170954,-0.6224768175398648,-0.5335951596346784,-0.40125105189471927
0.8960748633099141,-0.8615914431006532,0.466910075577683,0.5751299727037705,-0.9240739896402334,-0.6264738555121162,0.17950313875163829,0.012660865133902934
1.1116455656190898,0.6745584504682834,0.0017492864155789535,0.828102478726979,0.7304172384668745,0.5951091057677577,0.16355478363815246,0.9654829568076263
0.4900666206373915,0.515565186700343,2.3553723121033032,0.4539955655547142,0.6684318548155774,-0.18116321041229255,0.28550455671186253,-1.7312178390442712
-0.2679254326830071,1.065040537078479,-0.23540400522546368,-1.0572610697476554,1.6743237614151394,0.6552957308644686,-0.22187337814570726,0.9723345943150274
1.259013989412895,-0.07657271463123112,0.7409946943368029,0.6914104714043223,-0.3862234636951678,-0.8853655985738528,-0.008025276603085682,-0.2735947485738913
-0.048658763687890835,-0.45287195810027414,-0.4879392082225693,-0.8167744260845865,0.04798967492977929,0.4700276406901898,0.6520441596082213,-0.8818588389137294
1.3323924650511376,0.7225611018034085,-0.8587845298246521,0.552743620036766,1.4977469158394183,-0.03081624692682525,-1.026864816934778,0.23742979289671345
0.2148987523851926,-1.558893715974295,-1.9237330374295636,-0.8375647803150872,0.26013792181591844,0.12972951472650981,-2.2253524092874657,-1.3200449630702373
0.46493800354481246,0.003731416694262937,-0.5186254008336155,-1.6677133255257117,-0.5056765607873971,1.404414904606625,1.0237235811127046,-0.6696518042692039
0.6065399116377934,-0.43408546529036546,1.5944558390201948,-2.3125182345801756,1.5111329809154659,-1.5175754975344884,0.20876112044288211,0.8979784128830479
0.44087846239298994,1.9840506632630681,-0.4526007830338216,0.2500216775793922,0.30930462950550197,0.08353045523573314,0.09280542261233243,0.7542769458468689
-1.0710242356957171,2.4757588541665116,0.5733729487234523,-0.025328665626594582,0.769013609698936,1.203530718784863,-1.51729557510888,0.9510060688574663
0.5121377566887696,-1.460774750981712,-0.4285018866502953,-0.8578704563892764,0.3701432932230229,-1.270000481847052,-0.36901720850667197,-0.428013604506417
0.45378989776110157,0.7296309908193892,0.7272115740955458,-1.4288579000127841,0.9075987783722064,-0.42611115559521745,1.1925059609327888,-2.333681708392103
-0.036250816578290476,0.2524551632643352,-0.8371207040346366,1.9133462107053247,1.6256259592487066,-0.8492895630139604,1.231451267462233,0.9957684380115502
0.32871305256220046,1.0758230936734,-1.5500016604446751,-0.1376388778894496,0.10597059790125055,0.36012652566838965,-0.523110909595053,1.4217649643433636
0.5355719050621031,0.5691038717326089,-0.5591671863910563,-0.38220478698393545,1.7179306503172527,-3.8950410023231634,-0.48236744206046905,-0.16869268319355232
0.6380300735922165,-0.20310270896785992,-1.755582345244916,-1.3650903792197067,-1.8745759528182424,-2.0094306927787957,-0.2316900020914739,-0.6492742712172698
-0.08710720453120638,-0.26980184602270446,-0.6496473724725309,-0.6028429130975214,-1.0333104905494086,-0.7065337107037382,0.6385140759437955,0.9620296490446038
0.9493988433312363,-0.39252775184567634,-0.08497851147830553,0.27251346552220657,0.05461307151171555,1.2289061303229514,0.8762755423727308,0.15728975401909367
-2.279718639020549,-1.3343160238016574,-0.990433673215085,1.380388316178759,1.1445296779259362,1.2891679269860548,-0.3923129612866817,-0.4135067480650615
-0.12426979256208436,2.0779324169607194,0.3016876670692599,0.8628596625648532,0.027916790398809125,1.8975447801749186,0.23685766448420464,-0.7678641782896913
-0.002206783000306451,-1.665423340546123,-0.4635565695467392,1.298207105014072,0.10587022212654512,-0.33827312705674484,0.8707590255955151,-0.7481547082854804
-0.38307413269912155,2.445919124942379,-0.7326094810067195,-1.6830247668149112,-1.7475074952279066,-0.2766842606567343,-1.5655556336908927,1.3307940886849083
-0.4151440899468158,-0.3792458936110158,0.6736566996701705,-0.033047057745362325,1.1901872578276536,-0.7444957259147118,0.048313711570537154,0.713543458456724
1.7673769639200616,0.7124700871639408,-0.16711835389232454,-1.175562084248879,0.3654278325211219,0.4176837666118299,0.8257737033662088,1.2076519934044294
0.2814808245472934,0.10222314482718495,0.5269520524503768,1.1569294707765183,0.08676765374666918,-0.04061158917047497,0.7904598626195979,-0.6853095359166355
-1.5910665439801053,-0.024298682723576916,0.6428906695345963,-0.30853883295069956,-2.782392924069426,-0.8413760585070786,-1.4387642655892101,1.901198417496577
-1.2896774853874986,0.004523453137695459,-0.14954152962671144,-1.2041744478864167,0.46052296838641404,0.40203489446586405,-0.6105331518785393,-1.5143229117908905
-1.8193774183945781,0.8080912347928456,0.31874266267493095,0.9032868687492638,2.394850970124461,0.6797124702427539,-1.3834360437527937,2.2172283121566627
0.899556953252921,-0.011872427490800353,1.8715927824129543,-0.095526484794084,-0.7888754876077191,-0.8610780437597497,-1.5687717283608882,1.3895883380309368
1.6457008126389114,0.5042838351122017,0.8663390757554874,-1.09677101205197,1.189994244945148,0.8177340342757289,0.9712126228170878,-0.058268167220449696
-0.2578497454498621,0.25820814865335706,-0.3090263985169113,-1.07349336596129,-0.2654221435449564,-0.7805131657341371,-0.3073130545549729,0.6376708218896953
0.8665439270178705,2.082600318753043,-0.13853298895291813,-1.8149115094267625,-0.2230345262220485,0.3527768692632364,0.008425380404338965,0.37982091930240053
-0.7997997696740161,-0.3081348790326425,0.7845723046314822,1.3271423983002253,-0.18300043528120571,1.1884481972363234,-0.5039905065281005,-1.0733739090476755
0.63546319303638,-0.28191853255628246,-1.2814789378666518,-0.33522229561629513,0.8725689099213914,0.7893239657480878,-0.36335686271173345,1.6956124569188562
0.21686848245281282,-2.2265870626777433,0.28140098026977944,0.04883624127760647,1.0878250344305334,-1.64250568923218,0.38520598306863724,-0.14223135228703748
0.4721505361993587,-0.12904440892837796,0.4780448131818777,-1.1051634246871598,1.7261877761318163,1.9180034780887274,0.1718443894905551,-1.2221906321136091
-0.5043700396653942,-0.0043900824355841694,-0.1423972685374019,0.8626728084698818,2.1458464324293427,0.6293755021329103,-1.0812844976864229,-0.7921005263293507
1.023611669325914,-0.2696409458320315,-0.883026311772392,0.13397023592124838,0.8100725326318637,-0.307284510133675,-1.1616046174322574,-0.8369106253447124
-1.4851285962578766,0.0715272391095113,-0.8120982052432373,-0.7078413817412392,-1.293313742537791,0.8442893133222621,-0.811270750574537,0.9202547847279693
-1.186421540420783,-0.5706435948302544,0.21650164681729966,0.8799146063750719,1.3796391718748306,0.04675912851222501,1.0542095534623304,-0.869616767859445
-0.27391399415907713,1.0124808466009974,0.28823873644901676,1.628360614687885,0.5488624242820285,0.8243756981802376,0.6951179373968999,0.5140105407640614
0.31616601916129344,0.08056583434335812,-0.8244901075273301,-0.34498815974628005,0.8933432178841465,-0.911812415516747,-0.47336330529623866,0.3673856399681002
-0.647124404822668,0.9384445328623362,-0.022026738786089,-0.09070288308933204,0.6670211471370177,0.4909964517968249,0.34793615754818225,-1.1513185842708107
-0.8649818873712773,0.19866615472549187,-1.1874464233594135,-1.4312875548199961,-1.0041910346334748,-0.21360335675988962,0.951526343977083,-0.7333159984757122
-0.6216544750082238,-0.5281938404219431,-0.18890673262585872,0.44881888329363834,-0.4252384617635716,-1.2038022469677838,0.28066024715696564,0.3517027518557805
-1.1123978487182253,1.0313814090635154,1.5762734644919096,1.0317790692195346,-1.118765229583474,-0.3664406339440281,0.7936875982661372,-0.9527229893306874
0.2951944316313864,0.6137268705584442,0.4708525604352942,-0.07431554673404382,-0.7941779334946196,0.9185175213318811,-0.41684927571106883,1.8487014678777562
-0.9943112184342393,-0.10664194302004533,0.2519795473196016,0.7949329371024354,-1.1381596669729106,1.5927032153451257,0.23329852981034013,-1.6441818059395938
-1.17183450200784,0.01756925104409099,0.08358662160009091,-0.7337583103793748,-1.941131916557002,0.19891619962943607,-0.08007960299785151,-1.1432942143280223
0.9424415551216072,0.37305723721376066,1.8148341466194726,0.4325184949440667,1.6899464915915976,-0.6866058549892397,1.887739187332402,-0.12807061390436486
0.25169913808114175,-0.6466417645885603,-0.07101988973740188,-1.1670822900816116,-0.12024603340016232,-0.7906848322996681,0.4447512596376639,0.4194037098180465
-0.4603875892140035,0.6125189668198819,-0.2646374792820217,-0.9280853207308922,0.5264741775986647,0.7623186028117784,2.39562259399519,0.552731928836061
0.06572050716515285,0.39250040131315533,0.4866850408983305,-0.694911574591736,-0.12235727022807183,0.6076557046682711,0.25117284677540774,2.060917745670308
-0.49798826418610265,0.3435065870991155,-1.2515381835907873,0.46846678508746775,1.534996183235765,0.13850350558153626,0.08448775454179691,-1.591601868147215
0.7814296260212823,0.5556330509229225,-0.4050287252572827,1.5372153705213285,-1.6145991021650516,-0.19565177244350895,0.21937875407243063,0.5740451911432185
-0.47502152216504195,-2.0205367979809847,0.18308956313010377,0.5490559498601427,-0.2820484588264059,0.5242635168800274,-0.4510459777810162,-2.888190991949257
0.4892907119066358,-0.5609974066164581,-0.6160551954728716,0.6327191706086908,1.14759774498904,0.2195931289118723,0.16763085288322244,2.522408874974424
-0.11313854470462675,1.8601819335072596,-1.9997279785715127,0.6416833936563721,-0.8235162047078176,0.4984966915548477,-1.9573109119953382,-0.7210654583526427
0.5424816742555745,0.3296616654888334,1.0094897897492257,1.0327868243889051,-0.5401055355197885,-0.011657985869992973,-1.9679455089798452,-0.8464692747666434
-0.36210619631564667,0.2081823779936226,-0.5775616527796968,-0.6810328594459056,0.1534673535307861,0.022848064741180195,1.1442128540749936,-1.6897103336785024
-1.144765561523318,-1.2544240220051455,1.1665835573384857,0.8851755846787424,0.2761145521759862,0.782037637622221,-0.13921250062011858,0.9051274606949272
0.9266840352434657,1.0113119897832452,-0.6606972484796761,-0.6948264550561174,1.3066021397836873,0.6133894835854922,-0.7742951306927948,-0.6282833133635852
-1.6844320364562675,0.42297793974635384,-0.5462873348817315,0.1944424200249802,0.31914712945438084,-1.1185399145462616,-0.5265082471599295,-0.6118110929531835
0.6361313711516183,-1.2865267496637112,-0.024999937574441203,0.4488000655485551,0.05629370446298412,0.9088167457540447,0.3195087615993122,0.7609471298050325
0.170456658643656,1.2724057312248673,0.2002919239930434,-2.1248576321175787,-0.2023311745274372,0.2813327232840618,-0.14159102294229053,1.8798090696322163
-1.3674226044424798,-0.26252206207258777,-0.601360983088086,1.0768895536113754,-0.6119783919965438,1.696487213756231,0.21488932008769138,1.3136249444173844
-1.1790952460997801,-2.917928286273536,-0.574389673080278,0.19134529448568052,-0.20251387391983006,0.8100107616525872,0.397606451343275,-1.1399730878530365
0.5400443633729185,0.5700477761979805,1.0708798029105808,-0.6296401440060551,-1.4782264721115375,-0.7726133898918286,1.8276656813972485,-0.6946238874242313
-0.04693885324202592,-1.256508011132824,-0.40187697117167964,-0.7958010277573729,-0.3134125393612662,1.4560679347411583,-0.10408518164760142,-0.5356081145794864
1.9249970317156098,0.3073816504718482,0.6859659584215042,0.10781575109355786,-0.7591240659948698,0.031962911361036704,0.25537059468010054,-0.2159476606373605
0.09107242945924363,1.7105343777556012,-1.2472177620734486,-0.25170062163501655,1.1744477180735375,1.9104628484509598,0.7667453639405828,-0.4041069245440272
-0.16314546627797033,-0.8564342404812204,-2.354430022180484,-0.3988023859860506,0.6220804766454167,0.3141228853726893,0.6566228251421853,1.8568407180631066
0.38083812195859423,0.916608856221757,-0.7494011223033706,0.051084196529016634,0.5973956839468105,1.2237123089448732,0.27355502146298183,-0.9726522975592776
-0.07883361410640667,-0.0025098670859915683,-0.6145698586280267,0.16451042335980548,-0.007011445610746319,-1.013003719722209,-0.6177984927468234,1.0672297232427108
-1.0396900045867925,0.6118260569104852,-0.9801190917926342,-1.8089621718705624,1.1715094589637385,0.3945592354450177,-1.1642006909758995,-0.7040671835350938
-1.14540877691732,0.22962601381265066,0.4877008392470712,-1.7740610395110286,-0.8970502035757778,0.27557591191745295,-0.8059438462690984,-1.6927448102165341
-0.8042784824195501,0.7365207146717626,0.1549638836566896,-1.9797851712113406,1.5565781707175472,-0.6283273365418486,-0.9871709582396466,-0.7895036321905091
1.900666979864633,0.47169592790815096,-0.3814363060723623,-1.3383137288613554,0.1728309286443982,-0.46975856009798056,0.22370156602408078,-0.3256085552796679
-0.5999711332521174,-0.2775583144227248,0.7910524355333837,1.2455536054347678,0.43618049249405877,0.23175649063954284,0.471629860401226,0.36956072593366596
0.44591369791890106,-0.7269396371217113,0.9707096439131848,-0.6680459194344524,0.5645794367316405,-1.430467594541549,1.8614063349719294,-1.3941160840216318
-0.8279790974567596,-0.6414128769444578,-0.2944975491953106,-0.8306620896718554,0.9641556490946399,-1.0776124504696634,0.2576210277203672,-0.7143639380757087
2.136018793199073,0.14673268384783367,0.4893901209781928,-1.343399255576568,-1.6211128081334756,-0.9444395622749923,0.9954670029938472,0.8333906360188534
-0.10990442082189554,-0.4499753583939757,0.511675093234475,0.030938461086795717,0.10400587051061354,1.5116169094993233,1.8060517911742864,-0.16025663338955504
1.0209549719697875,-0.10156251363229228,1.5917992846434452,-0.957207408489024,0.6787710574930084,-0.041840664821310644,3.3933032132340264,0.7638200270438282
-1.8272564178995652,-0.5722253110897075,-0.8800509795826422,0.9963550848733437,0.8278964073521463,-0.2987988088318901,-1.891287529244115,0.10363542423012716
1.0453878889272568,0.5576946723802967,-0.6007959276381373,0.16123897750031443,-1.2061609184147273,0.9095211340445305,-0.9347036592417667,1.1515845846283586
-1.8700066135482267,-0.5014057636712397,-0.29000789594673865,1.2230763900294335,-2.2846281333679808,-0.3984067704599921,0.38969064947050386,0.4214900915026728
-0.03311213272643497,0.5590900636990728,0.8351633954271148,1.1702588984611044,2.3323452985981112,1.0057514330610726,0.0685805767777467,-0.48441973640578206
0.14188418257076377,0.16689416052040978,-0.3617963244690047,0.4100139552719154,1.2259657729981561,-0.702818816117073,0.6947909676547127,0.3029132575442622
-0.09510118619228695,-0.2110687055407556,0.8732450728959479,1.4537696717257027,-1.2248436479440623,0.9221723255468396,1.0815076159247357,-0.4800252648672665
1.0064288845641407,0.34462661259274424,0.42167162972424227,0.490218920561278,0.9606173817281811,0.41881261893906907,0.9164632228073177,-2.4474436114067877
-0.8683867890216832,0.5542419904302074,-1.3912676645356854,1.1105861753266255,-0.09491750571843789,0.6583592083397974,-0.6081057823140821,0.13596238097491942
0.9354400569786459,-0.067689953183504,-0.22361496058313904,-0.22062179513192098,-0.6295857945142408,-0.14998218039081612,-0.9203001208445822,1.5692542302660317
-0.4349105851558156,0.5504387384397301,-0.9618961854392983,0.1767809453817346,-0.600718984116175,0.26674423370235556,0.4689611023167588,0.3695326677689642
0.6382403451215247,0.43038788339229966,0.42517943630446825,-0.08146060474743537,0.7229533945201889,-0.3545932356596254,0.48098516488784454,0.2616803651671467
1.9944433972316542,0.8070100138482478,0.20250939036435456,1.3266016799551246,0.463626241162956,-0.5295280073753401,-0.19501523180958624,0.8123444538693394
0.9680251258645198,-0.024043260775862184,-1.1617483289000585,-0.30220147175151985,1.555545844280273,0.4304276678004798,0.5595951623490913,-0.8606116276715559
1.6862224763020286,-0.2797894508968397,-0.08386472652963207,0.5487760134211055,-2.0921608407869927,2.204628733858599,-1.4904857640893194,-0.47073017761047065
-0.5126813637088604,-0.12183010939531738,-1.8442754345369774,-0.30999665554095374,1.7668026965662686,1.4530256557856747,-0.3888668898599124,-1.1782842211764222
0.42916598917009063,-0.6078365485096949,0.07564072208109282,0.9302938028219662,0.8726634377074297,1.1099162131121785,-1.4575078457433643,1.43853214155723
-0.2564849095591298,0.35706686175590846,0.6698642291372742,0.6571830580764335,-0.8635169339690829,0.3992669359424268,0.04889813235102939,1.2520684708605991
-1.1419746569522566,-0.6367151058585767,-0.5555378308153539,-1.2386365589399952,0.5076792219609275,0.1540084754673002,0.4118922798895416,-0.5435179904653333
0.9290782086197003,-2.5511568032621375,1.416746508320409,-1.0097257632200922,-0.5287703736348607,1.0542879109385768,1.1883954934598222,-0.214534981799912
-0.616398595381194,-0.4875618402633011,-3.202033998814185,-0.9441939707508942,-0.13790074408200792,-3.11268029402058,0.09367588913316255,0.6229545958757343
-0.12680082303579504,-0.10254595365639056,0.5934193484598284,-1.2677654759184271,1.447783046999343,0.862069721991996,0.797249950020341,1.2319942767748522
0.15239680512990583,0.38565227287824505,-0.1920961427504417,0.61351890541343,0.6978813999039467,-1.1313258045151315,-0.30785859740292254,-0.14299301167356246
0.9555099551962766,-1.6388784204648932,1.2510111712429979,-1.2386757577807095,-0.41057361065875064,0.22291994026986867,-0.5582577158762859,1.1308716496091085
-1.4667540591235755,0.8319903429167307,-0.5049230590319804,-0.9222847929334396,0.9298219813292018,-0.2547016027989612,1.5668117976353295,0.448044010127551
-0.5706805329161714,0.6745500829050262,0.24063483020990042,-0.5573076560067179,0.6822318385101035,0.5771308436753535,1.494887850116098,-1.199987541381648
0.28638080207109284,0.27547907443924186,-1.16862972230462,-0.43319347395106095,-0.8416554181375868,1.3878413085694887,-0.29361172463178065,0.03845298342086109
-0.2537558946167567,-0.08755472476340712,-0.9268710006047217,0.3083828941987844,1.5857983880702577,-0.1485899494388488,-0.9733469932194135,0.42266992070037956
0.8696877433908752,-0.1978735171354768,-0.5387404900853082,-0.4054498229557978,0.5280071371850724,0.519036440293324,1.6548116511865028,-0.14521875678372131
0.21020974889302949,1.7237258739370631,0.12667052778734852,-0.025397677208507392,-0.9623549370260533,-0.6053341280980545,-0.1855994847736326,0.31958155895832085
0.6926981174909878,0.09768601574783703,1.4791526034742406,-0.45820832254849186,-1.724891755435724,-0.27036629269203155,0.33090248754251167,0.35648561879698465
0.1395261200501153,-0.5034765081058217,1.756772732987333,-1.6100771721310967,-0.1165806580417828,2.0532489263244575,1.000897382468593,0.04294588587051574
-0.07849815121184665,-0.9472401546108166,1.5795435660422152,0.6761161624427104,-0.24246808076571885,-1.7397985343840705,1.3574939943323932,0.06372998496630847
1.6289768131109315,0.7798734659624965,1.1314852573922622,-1.6150283059534247,-1.1237291450728653,-0.40160247076399985,0.02795522489206425,-0.4344570235501939
-0.02450974926892514,0.6508282101795968,0.8480143583613587,-0.7440477785807039,-1.2720239394262953,0.2653291725123358,1.3686810252996198,1.0661855301345986
0.7933713893459021,-1.1769611712084833,1.8630016028492897,0.2573624747560336,1.0496547466764972,0.6328774851310236,-0.5297813062251331,0.516365199503758
-0.35093210480968645,-0.8952302299141512,0.534584854924028,-0.6040189631592671,0.38853209694120605,-2.6226809062812007,-1.0188526210773614,-0.6774514743377894
0.05541526740564991,0.2703600970540278,-0.2383613429693152,-1.3916897927036647,0.8480952275942772,-0.5710632950417022,1.9743035321688174,0.24596642845877084
-0.31827204616971877,2.828886811355973,-0.9122666362927971,-1.2321149906713507,-2.023299161201885,-1.7134865738187572,-0.19205570495583743,0.721177261571173
-1.95015572056172,-1.1596897117979925,0.6211480478561688,0.8744229014181996,1.136715738622205,-1.0710126227156627,0.24846357770792024,0.8784120849819197
-0.9766616478707779,-0.2919301366104221,-1.2634551782524404,-0.7698614999338415,-1.0066739400715552,1.2719710041261294,0.6306950365375779,-1.6414617250609163
1.9531062242155428,-0.8791951672269377,0.2835544749223042,-1.3557870795063498,0.03160294469346288,0.6536481272858149,0.3484772916221275,-0.0968086095331703
0.18101127494919678,0.08397724953696802,-0.15941174337859593,-1.4366098605965822,1.629524631567032,1.0630615327046509,-0.7660128191992062,1.3270088188311369
-0.2228003138709002,0.2543898900665131,-0.5332581095358332,0.7405096291168415,0.7944163690397696,1.9412152152479067,0.4877129388626826,-1.027170327581774
-0.11906587510719657,-0.7469862247520028,0.29394259441404724,0.7508213534164138,-1.405526159982591,-1.2766002301965789,2.9301350677432954,-0.5824064499192605
-1.473283084424758,2.148586020416651,-0.0035382355149882936,0.03179488552333079,-0.3432340954135396,-1.2480048627343416,1.1273447089472821,-0.03324654928234993
0.2000768395791095,0.4993031940865852,-0.7185637888127269,-0.18258381652953548,0.6570829221571513,-0.9317304287947087,-0.730833471490997,1.2641838986297613
-0.8162910968776631,-0.457415349470898,-0.9376569610557094,1.506209153839642,1.9103346079812804,-1.5448526812120327,-1.291004086213862,1.2152570760486354
0.2993244897717061,-1.2038795330098648,-0.9473665227384462,-0.6212724876127468,0.964727326839893,-0.7277985748533468,-0.08277917635185074,-0.3684148791841563
1.4170955613605023,-1.4358446198770054,-0.12151526883531044,-0.7542043198615335,0.9243422482859841,-0.5219058230107786,1.661499337609379,-0.10104971106919244
1.1851295766215113,-0.2830934373142228,0.47189920993754436,-0.39861674853010554,0.7436099224794068,2.126320574923293,-0.7536862913124063,2.0013743116975466
-0.4950118806372107,-0.419475418067371,-0.24021371531303723,0.13968930792482318,-1.5043051939793919,1.119036686444342,0.9918282672192419,-0.09969896837070222
0.09254856060363024,2.2606707772231487,1.110121400932357,-0.5908252148275754,-0.48197292348205917,-0.2610936908463026,0.6401338572950767,-0.7955671750433924
2.636770796499875,-0.46141559685099875,-0.8277408950009686,1.1921498077913186,0.34104862328307417,0.21712347777762692,0.7741710728549326,-1.1273155058769169
1.9296158306777051,0.8434119328629494,0.3543035304207335,-0.8238129747573606,-0.09085259853549328,-0.2284825604047213,-0.4165611323465153,-0.32339088594702753
0.3443819876192306,0.898378585968549,1.0377204331513623,-1.1344663961421069,0.64831730720095,-1.5366952004062662,-2.354712537193125,-1.3129557378117045
0.3830116582035705,-0.42892296021898885,0.016773506919326595,-0.8639697301269824,-1.1152410207962589,1.3923418357707056,-0.8000768877467689,0.5677044769180386
0.894540611342585,0.134271120617714,0.7792726461746184,1.7071860237263903,2.5315839817215684,-0.5916908282414556,-0.7558513245831198,0.8194647532219844
1.3206907287599554,-0.9263169214967082,-0.45558972958173904,0.3610946239770972,-2.3320129315680362,1.4953424720596542,0.7069009046279149,-1.1347593625121692
-0.9627090685561375,1.1933197770091843,2.1013206605459067,0.5701624116959737,0.6971446462693502,-0.10860237267265958,0.851419203838868,-1.0224833887827391
-1.4668542795773967,-0.7218498217686872,-1.1247328020787135,0.7299588321431721,-0.8038651501262581,-0.7290110589145822,-1.103802886688518,0.2510526532686779
-0.9489557713839994,-1.0689368176920984,-0.05253211320553356,1.6811759285145824,1.507261595488652,0.7134900471937333,1.6931406895156362,0.9569396824877437
-0.6276929800615552,-0.16073224555262056,-1.8271194337833903,-0.7173827875806111,-1.1806895382198708,-1.1371798332826804,-0.21565916026541723,1.36447658657128
1.0736409551592043,-0.2638900899373646,0.42326493705563534,-0.3316467221211939,0.9804614585170807,0.4016738759825381,-2.567596633329308,0.2816066899032471
0.03154165229788411,-0.6472178137529044,-0.5199322483795779,0.06972611398205511,-0.39392541738739995,1.1025187792317208,-1.1708637619684155,0.46609323735335556
0.17177603604871147,-0.33873993048777395,-0.383602007456458,0.6056294931055075,-0.7013159837844961,1.1792687050412214,1.4135427718322564,-1.0839781309532333
-0.902030313818851,0.6454346545384839,-0.2995181588450659,1.615687521363799,-0.15909000041512908,-1.3022512812362386,0.058997471044774735,1.0557466993562095
0.0716928829651783,-1.570861168114919,-0.30561921762948596,-1.5840845406434914,1.3182702265903812,-2.3256023002150816,-0.34618528402746596,-1.0411645574320734
0.1566238701734143,-0.37790369092433174,-1.3649129143846492,1.0481058839034203,0.3015501101891177,0.38400758444199323,0.23935526658379566,0.19018176899998857
0.3806741828560847,-0.969161581064676,0.4382759282994203,-0.6289720218386016,2.457238165409311,0.7682161936459422,0.09054805292276105,0.2604981628737925
0.3644359818607242,0.5670249297967493,1.2219395879916664,1.173491710456954,0.09723257644684606,-0.596240937407355,0.4039871929811204,0.6932192146820827
-0.7819087912625625,1.5024515201155286,0.7463990702975246,-0.9309211853945862,0.057345348325299424,-0.32398428157943426,0.35856964462700963,-0.6277072067226122
0.4808107384595198,0.6676134138522978,-2.0471940199078933,0.5826585319069355,0.9870336849574772,-0.8913234526118089,0.6893386211992266,-0.27268472456004667
-0.8562763539882764,0.38423596836224694,0.101138778631528,-0.03533979489610158,-0.6405781242833439,-0.6536079288631301,-0.03558966039550991,-1.1640783651519993
-0.7872008132309383,-0.23781625227547898,1.2729156655172262,-0.47534315817319184,-0.287743812599448,1.3072313259050339,0.16242867003759578,0.5128379609367657
-0.6442602870611712,-0.9576861667546536,0.8317087958997349,-0.7954490657479328,-0.17137138293480042,0.2540330478709235,-0.9658981469494261,-2.0936308618325525
0.25007149562335723,0.39811702397173404,-0.4157969340878989,-0.7849026931918877,0.6711057552142,0.09448550287633294,1.072161431843448,-0.153392552005788
0.027566243007064603,-0.05872784705634901,0.388014395010039,0.8649654932110802,0.6952816453408063,-0.3120388467149014,-0.9171265399675619,-0.3253517066301122
0.8499679707285872,-0.14383008131628652,0.21116743207180336,0.20169441310054426,0.1458425653384601,0.0007631494179145067,-0.39775357607940304,0.07459357514656109
2.5731072929299508,-0.6631008174800178,2.1259402293513676,-0.30564731482408736,-1.6749548829007872,0.8461476819432774,-0.7153470488042957,1.390540349379235
0.03831193355885037,0.36750449870782104,0.28111007117680953,0.9889338130351661,-2.087446139706963,-0.19404263547853776,-0.5974873536404195,-0.016807272827831087
1.9345065553166507,1.1826009099342158,1.9605687293341048,1.3859911837321803,0.3071737626349867,1.616689889870465,0.5800520237311597,1.1914041184848965
-1.982580330220484,1.6932998142648792,-0.3349043434493045,0.3824464760493645,1.5375772609876543,0.015116315367591794,0.01509059728615443,-0.607117755736932
-0.0026966375126089375,0.40201092729230675,0.412712591565662,0.9276670133434883,1.1619814311268197,-2.5889532104136843,-0.5417423770176621,0.6389707904473274
1.0126973688864889,-1.6589353522144115,0.7775304545371701,-0.44604118048946656,-0.4096152953979352,0.8836853228685487,-0.07243375667127509,0.3496415410060556
-1.1652658329645627,1.1511715538867924,0.5102576683813375,-0.30829515087697856,0.8966222286784613,1.618218202166633,-1.1843989162044597,-2.321362214862935
-0.29682835694379806,0.6189524597530001,0.4275043607472742,-0.7373191257467846,0.6736299593443924,-0.3666971229113912,0.6772442616833323,0.6337960129654971
0.4422945795100989,0.06588225752321798,0.1002160640996723,0.3494105333356567,1.5051521093327358,-0.32090268175923553,1.2349387876410869,-0.5755591358438802
0.1295078995938581,-0.9631639994250193,-0.7817829489659056,-0.7853737639609619,0.3801584321943271,0.4117259154640114,-0.6046117374571727,2.277909701267891
1.9527559143632431,0.4547035485123711,-0.3792275891893065,0.6258583970016208,-1.082266294343467,0.004410422946870911,-0.5174246185212683,0.6917518060518396
-0.3643740201988528,0.7808029377148532,0.5761494776826144,1.3694847072281546,0.9979757948603746,0.9339983784676373,-1.2867078524171898,-0.12984044410062717
0.9046039169542263,1.1499699305575215,0.4366883519934474,0.40815269187670294,-0.1837050265505299,0.13341584643250629,-0.6292248516215345,0.8678692942674637
1.5024432386410582,0.022706222658471786,-1.9204149936629833,1.1174948107091824,-3.384435844679512,-0.8529448809856567,0.6889082254064746,0.23649404984933503
-0.8552989535968716,-0.5802177209438847,-0.2312790580632975,1.221417179730355,-0.3545181904968562,-1.1157398791643411,-0.5528177786189676,0.5333684771233063
0.7962388839679134,1.1549820128485977,-1.3800198413530869,-0.5477455448910794,1.0230276314311681,-0.3605836544262376,-0.8885512725100286,-0.6048005796979384
-0.6077977202033461,-1.2348373920279616,-0.6547062652928605,-1.392437816870875,1.9300916705727906,-0.5923050915481076,-0.4516539898455071,-0.3702043091918669
0.3783679914379058,-0.08522514161096191,0.9316613022023102,-1.001696212836438,0.4361587423192837,1.3431937627977026,0.41135964810418707,0.4502164946949202
0.4383869816623037,-0.292405794975089,-0.4784187686550996,-0.47685980970826325,0.10751669807380414,1.6701217149233074,2.0424080314661732,-0.5110868786237325
0.010030968968119136,0.5710713649764123,-1.4860922411347683,-0.5933383330184226,-0.03477891258723049,-0.9834938290998287,0.20510717869748749,0.7647017427303403
-1.2895148237306564,-0.29002200063986133,-0.9978184415868865,-0.0951639726556364,0.4319979881766323,0.39162800014037363,0.46577748346295494,-1.7741372037363503
0.8133433854787712,-0.356094445407839,0.402947013401046,0.7072875875319609,1.4091907374457486,1.7800344136455133,1.1359027193408908,0.14055331356416859
-2.5482186274691103,-0.9635322535633081,-0.5292491825325508,0.6226815219934261,1.0762828467172736,-0.9206389097612984,0.07862441419816849,0.9776332750205644
-1.290757329064477,0.13755033983397638,-0.6067140161834496,-0.04401604044866424,-0.3358017883054988,-0.1598418548843905,0.5158996360556859,0.13177870259489413
0.3066449131825911,1.7657431238202972,0.991302998407525,-0.08702806097255951,-0.11947183910910142,0.19021069653281125,-0.5886688220542794,0.1759500872845614
0.35839027550386426,-0.252094904322053,-1.7169509685496902,-0.36558145877050907,-0.4638194427742748,0.07981413315696956,0.18982360734196815,-1.2277540638219846
-1.0917878916550343,-1.2592936585559071,0.7060382954486153,2.7238627578418466,0.14582645853393664,-1.2468384149522882,0.5653853907736816,-0.18534290092386127
-0.2981608119748606,-2.1198549732754124,1.3182319219463479,0.8122825591793937,0.7370782166165513,-0.4598442516785668,0.6956412881875653,0.5632593345975051
-0.8225021650651353,0.8289549771780766,0.728906785025513,0.7387169135146389,1.0922898049244583,2.145931264253879,0.10820431976216359,-0.1395633813595029
-0.37012986186708363,-0.0752171784785012,0.8820957193400804,0.5210685841649296,1.1823681126986263,1.3476626517638288,-0.30158152727466286,-0.24094706620027734
-0.023983004988769444,-0.7096269368885274,-1.1099467905984326,0.6587627236802044,1.540228082267122,0.6424566422724234,0.9799775887707555,-0.17434686597116314
-0.21751890191901382,-0.31542200747959587,1.4650298457161868,0.5704166454417411,-0.22599439868644014,0.4005838107783004,0.7522150976795271,-1.9121045059128061
-0.40198067940500887,0.7372838509047149,-0.3967128852863947,0.9244783248046796,-0.8542366336519122,-1.7055315979216283,0.10458150392200638,-0.6247436224408657
-0.052222711046134775,-0.35431200542624325,0.9139690211019726,1.1426058751370982,-1.0051711391098612,0.15656097992428125,2.517667029469038,-1.1956709699316912
0.3118815655938233,1.8302076595132186,-0.20145460986654212,-0.8199126814529726,-0.886596153538873,0.19678879156150053,0.9026424230738739,-1.0072596510846474
0.452807583094931,-0.6334520361728152,-0.5944136890315405,-0.40075794143144383,0.6701320367010777,-0.07047020462265434,-0.42173047574174205,0.21910720797196329
0.1932214094142626,-0.09232236705048893,-1.1081071682731776,1.060769096977139,0.12793228123073963,0.054860375416495084,0.9261626816835136,-1.605851535265231
0.4793352030871227,1.3852404845104522,-1.3150259039252006,-1.284377731778954,0.2034918322565993,0.38706384218530165,0.868635638053383,-1.479445833460658
-0.9755171263388742,1.6057526959866795,0.4920165344319915,-2.0980984590559473,1.1387010780765645,-0.38491444148637366,0.1739819503564852,0.5220569488617438
-2.005475168171175,0.24148470183008275,0.7451809997720797,0.8730284637414155,-0.7640437723315106,0.15704929918327956,-0.038380962887186794,0.9518245807061734
-1.1379217043382623,0.43429787694023436,0.4526884867116036,-0.8109134315443272,0.5193484311191543,0.39463597044446697,-1.1111482738959244,-0.08326957682130624
1.023317336597281,1.264840921081903,0.4561750385244136,-0.09443185492874254,0.16085840225015557,0.9412678057586957,0.14128928240148608,1.393049646402767
1.4268276087272058,0.8765810929806822,1.0268382409038748,0.17201448560030064,0.7179649327641924,-1.4297775671772073,-0.5665707834747408,-0.9923989440304483
0.09166671132062737,-0.4081393598144552,0.11785513668116515,0.4915538292118133,0.24567745495471702,-0.4167575542384186,-1.2908345450691356,1.16738756280392
-0.0435969623315246,0.9030401980802422,1.3495403682663003,1.3364891870129147,1.0112854517744896,0.05944028652697508,1.2869351500140687,0.16446261533668344
-0.4839149755647073,0.7706372830444903,-0.21111929466298568,0.6210029458958863,-0.4244696045729023,1.2580881777416486,0.986970554890841,0.18458763239020365
-1.9228845161565777,0.022161165539677993,0.9924300195220853,-0.13801052669247302,-1.3065895055882946,2.7169424443992365,-2.291682119168051,0.46055541646652587
-0.30507143644102946,1.254144572633506,-0.05415667690077956,0.7346899637069609,-0.7026048785250498,-1.5205264127206959,0.04014474441944705,0.541821535532003
-0.1129972637829316,0.6890237040542617,1.3943049152590554,0.44538383523398645,-0.014487360618400317,-2.0482340663198078,0.4921770860136843,1.7331330088271797
0.7595524531877781,-0.6596091281636659,-0.009948384534094233,0.5987620025296909,-0.17563620072862518,0.36752195059110043,0.08480476098922804,0.09448120374181136
-1.8703628254768951,0.8909711355810065,-1.1027548348119203,0.2218953209784453,-1.4999822241952914,-0.8830567696802476,1.6523664541060832,0.29947044479059454
-0.2909938666866725,-0.2452983682403079,0.6576781618221456,1.2731918336013763,-0.05052022264589224,1.365984587124589,-1.858265424237614,0.7341798774482677
-1.4148053547936692,-0.495037158048657,-0.738153379905603,0.5595261630497297,-1.2554188572734433,-0.5974534198163743,-0.22807001765673438,0.1078607016130188
0.3328706754803514,2.324616853254141,-1.911975368094949,0.7086066400600903,0.3012735040208517,0.8635163123737521,3.35776396886186,0.7065741463524122
-1.0333514590159736,0.6057106024738068,0.5006092847748373,1.185461390914853,-0.12782715601617056,-1.4918115135446173,-0.8295067295623807,1.3743090464200305
1.411508728244058,-1.5824161965952588,-2.055992740625487,-0.15162050839004165,0.02115403758736035,-0.9254817653992138,-1.2411512689419426,-0.6965424902672734
1.1211266225404823,-0.5685536041090523,2.0434764811078066,0.4635858567335631,2.4621767893432596,-0.6618726280737437,-0.39953452506930165,-1.1223162644961
-0.9146533092440273,-0.3741050394751111,-0.3273360899880806,0.2751793869281744,1.78397404530383,1.299679461452684,-1.1046851127846382,-0.09426375600324255
0.611288558770037,0.3705899860841708,-0.6664053354382738,-0.4836506300669223,-1.2783188696854788,0.5412112556151917,0.8393769584493684,-0.8262018133540663
0.8143345772660482,0.2282050192889181,0.026290625920388923,-0.10314761577758916,1.7644111559732907,0.06389098580252607,0.08535975314615342,-0.05800041314667111
-0.819959894189507,-0.09879834227093036,-0.32171632334893174,-0.20529384340709003,-0.3274411737467081,-0.1454938758643693,0.36376132692849455,-0.09019512494452771
0.3020969194159417,-0.0017657362987364056,-0.08721784548232092,-2.1551476671474026,0.5441609863359272,0.44071050158030745,0.8082093684640811,1.162144701908123
-0.7594879509680499,-0.5687058608233506,1.3972629836033041,0.9720862210833293,-0.43708213125198847,0.22982050282126884,-1.0139609625418937,0.5043507598627979
0.4545988127266052,-0.934981699935397,-1.2794857918013516,-1.6668067837660616,0.009338316536139982,0.646576620941036,-1.5230635540188509,0.6988059110069861
0.047812882670449496,-0.21065634328511312,2.0332588884288416,-1.1285526213400636,-0.6410770559293714,0.9026155279171186,-1.8599735859025388,0.08592699313497716
0.0009832358175631793,-1.4032729252285916,-0.20536978848179024,-0.2119609955408431,0.4586399207255899,-0.524895162161724,-0.771268498744735,2.1074139925840716
-1.900522180508606,-0.07897623551742199,-0.3963370208123813,0.29456985525015705,2.0759311576001935,0.9398421745570755,1.412765525874967,2.408578507715241
-0.021839508666257185,-0.7894026127298754,1.131353703703242,-0.2330767189411792,0.5412427260460081,1.54316356338661,-1.6212596823618761,-0.13663954663226127
-1.5569557864876833,-0.5431209095024618,-0.7205838269816139,-0.8197619882161451,-0.17953604030595105,1.6091825646764317,-0.31034106711994186,-0.35934917940676303
-2.3080212829418496,-0.5739742800500789,0.5901313382259931,0.6948953236959791,1.107678180666107,0.13099172330219577,0.7636899437793403,-0.9021614915420901
1.2042842265767735,1.0195625138213593,-0.18429991491975314,0.8724497439712676,-0.5429772282501067,0.5357237363916763,-1.3903992704034451,1.316333681144871
0.7452365321197949,0.7885875515515551,0.8185107449000214,-0.8492413472679605,-2.0180972922250255,1.340882493531013,-0.12270764932115971,0.28081240533312873
0.4858171370380354,1.3749691740502317,-1.535252773089231,-0.6656449712544005,0.6843953099763033,0.41859833206543834,-0.0011612356648464006,-0.5460893461921725
-0.6179619886345623,0.7614607576219425,-0.2056345390517652,-1.8294003309370832,0.8442375621057464,-0.7688831743742439,1.4218015907485635,0.35056453282661854
-0.6500089686129689,-1.85006350832366,0.0981954470815713,1.107939198574613,0.10435488634894936,0.8051504969740959,0.20041871526784605,0.8497709029381805
-0.6507613826791587,-0.7840852464678724,-1.1500643778215922,1.0676340371182282,-1.7506088996202884,-1.9186900428985576,0.28281393254141457,-2.1148879413737274
-1.3840351521192198,1.147884917473548,-0.15330444802227022,0.09896091431410885,-1.3747457239533103,0.6623055761543083,-0.28533205231564707,-0.4096561502110306
1.8433538979297248,0.9384393405518726,0.3092288469606162,0.4791273155447882,-0.41946507879762734,-1.1876336477440712,0.7528110506611632,-0.23824205175190655
0.9357160481777487,1.3143344858225356,-0.7996811533261573,-0.6454118871413287,-1.0252725955306288,-1.021760129752869,-0.218622183078964,-0.35761198858104104
0.6153026718181845,-0.8159186832727505,0.45582115835244147,-0.16283840399770722,0.6798285650512498,-1.1179704345643857,-0.7284663437918834,-0.8650549997870395
-1.042438016877811,-0.39391686559375183,-0.17169149789051372,-0.45944128541418533,-0.7786524010473282,-1.5838292466502606,0.7563329551269328,-1.328648240537156
-0.6418324089887342,0.6511876649189661,0.49139377475016327,0.07462093822940682,0.026462318585534723,-1.36505203222668,0.43365558777741325,0.35210657140457
-0.5335343744812278,-1.3072503259150083,-0.586508437446858,0.7193837695405062,0.6399664334071009,1.0136470149780261,-1.5158333139944566,-1.692366662805708
0.19274399964551606,-0.29478428752332947,-1.1899680863707318,0.44642662578817316,-0.015533265846013528,0.26536962759805316,-0.6546654651379413,0.7562747912693486
0.798864081698825,0.1509929296441437,-0.35264682287368704,1.3599094080488765,0.9086712655353666,-1.1423023624245545,1.0314677981228308,0.5288529451558814
-0.4149915621080982,1.2410603378607559,0.16903677806188847,-0.1557880425795614,2.013921562065842,-0.7164513658020963,1.0624594348165879,0.2626791283014267
-1.5290171998578217,0.9192627787419181,-1.1486839288283806,1.959437682334742,0.5354714200892311,1.7100278164969036,-0.9066401646300483,-1.513710282617504
-0.6895888732904137,0.019483405879035735,-1.3214060582923,1.0597013518110294,-0.8796262429296736,0.3812330639808575,-0.8686688334740766,1.16118549574281
-0.1424812516414067,-1.2446286412717744,-1.6863144744707246,1.5831506354807154,-1.0699089629934408,1.5340933074503769,1.9609545418639158,0.5962631952262218
0.772808918342218,2.726412890650744,0.23809123007573174,-0.7788006735443892,-0.17928771846049701,-0.791648984615003,-2.283324889268412,1.7589061972478406
0.6814584595600132,-1.2409784117317106,-0.42608876917105815,-0.372753420304371,0.2868633055523013,-1.1419472762411513,1.4913631520240207,0.6203632474135106
-0.8579958919878975,1.024319887708817,0.7638939461442339,-0.7638115182652787,-0.18652177593816083,0.7019449815394312,-0.536440794109395,-0.38605397883882986
-0.37360120801028746,-0.07177948113377418,-0.4272846430512741,-1.1266045310294004,1.1837101548759774,0.4814253405009278,1.4034290122409574,-0.2382875889710479
-1.1158174946489434,0.9274794994849297,0.12608229702858453,0.4822876239124403,1.601744271358375,0.4380655583326611,-0.3938445606448796,-1.5374915027804876
-0.38914510621844123,0.16079344951870334,2.18804273784407,-0.06539335274996737,-1.0078105071924328,2.0611696840661713,0.6682534683368913,0.12338350305047752
0.011381160532870254,-0.5592826143245212,1.5395534600291074,0.40730077900503914,-1.866060101271921,-0.3283614977052863,-0.16448155577688228,-0.7322818113616089
-1.4764055581343627,1.0819543857970855,-0.3945329613730979,0.0038884740907337433,-1.0741654073405111,0.06314593465210976,-0.1811264336759125,-1.3599187479952966
1.5649958980501406,0.20213796648425605,-0.3472211041467675,1.042425433238447,1.0701763372155426,-0.9437880571655527,1.3511781564910723,0.751207133300106
1.1999839701131982,-0.6446027055826737,-0.6488753124402056,0.09192682178225234,0.17519429533050504,0.5672528764485805,0.7385797043720248,-0.3913832109035566
-0.05118725390034299,-1.0242061416901902,0.012915784162431483,0.020358865837216814,0.45645389270358216,-0.6696643095305471,-0.051796474306071046,-0.7498343766676827
-0.8703892475156693,-1.8491844198307774,-0.4319806277820781,0.015383177679409254,0.01391450047579913,-0.8333532425950538,0.46980697807596067,1.95876291298272
-0.40605627762029634,0.5294668864328904,0.40611497265683866,0.2709758414676662,1.1400681046948942,-0.8425643193206835,-0.9070600139113145,-0.5931660341666283
0.4276451941425526,0.05629940453280919,-0.8530311906882723,-0.015161049112739149,0.46268034106748834,-1.7299233771840516,-0.05631872319444084,0.11916116537127355
0.11738190715050065,0.8002196476452761,-0.7997809532307575,-0.6505101686907749,0.052935445322283954,-0.6812548638666327,-1.1558515551508612,0.3373061176368309
-0.02168955597152171,1.2436530289241796,0.5581960167988737,-0.37205808362236464,-0.7238035916060138,-0.5638382247060965,0.19061506981995816,-0.98028103700513
0.48625986063906185,-1.5381692395597386,-0.5471704946434982,2.8929238355622653,-0.016491508516597583,1.7276038868101118,1.1429549628711246,-0.5811328702693559
-0.12110668186276258,0.48458871701277023,-0.21731056707194452,-0.022815485147718317,1.2907318424621923,-0.965995406061204,1.4887024794046837,-0.48312561592097847
0.3547215295752491,-0.62610942274161,0.22165559255033485,0.4655392402341475,-2.57137895793776,-0.45153039686687774,1.4118181183654228,-0.23194737641088337
-0.9716037526070046,0.027700156633679793,1.1437690444380433,-0.5043374702211317,-0.9970490697178332,-0.19291922750950866,0.6710003411383346,0.01884994467131202
1.1159433078662542,-0.33110355353318827,-1.7604107663433815,0.24259885701437311,-1.9667921449101449,0.11424416996917876,-2.325470969237749,1.3059185578426578
-0.6228904301926931,0.009019260280332769,0.6317365526881178,0.49415796204282647,-0.12042427564363893,-1.3319602006469697,0.3035345473295608,-2.691738468299509
-0.482924868420778,-0.6057116547220178,-0.6296927952285132,0.563003033770031,-0.9611057257570674,-0.7724832338860214,0.6534865865557827,-1.2318799029276626
0.8338664678707193,-0.24833813613092845,0.09586927724133588,0.08426329758423887,-0.3299961096741713,-0.7909846613502889,-0.7518561652677925,-0.8453854571882232
-1.125022240780323,-1.8924344836123774,1.1092878924758636,0.1393755248269026,-0.44330799113977254,-0.7817636070608776,-0.917637412336319,-0.906023472472897
0.3174576998212115,-1.632840252799183,-1.646848013053551,-0.48753151450332866,1.123418448691602,-1.604340720561074,-0.1825402991486838,1.867937888014313
0.16204653116058723,-1.4418002785535553,0.5788745281765663,0.8563682172962063,1.1179053881362222,-0.13562794527637495,0.04756907101467441,0.7938240954778163
-0.5253854323708904,-2.8164658730636125,0.9015807094424301,1.2099515883824032,-1.738994551518438,-1.3343766621198103,-0.18794664476135894,-0.6535843644360821
1.0788279538855519,0.053903572820941,1.3078343739721139,1.732329744337329,-1.653920247717517,-0.33072239314613944,0.5124743392924116,-1.1550130720946352
0.500475093017373,-1.1616532367817232,1.357512541875811,-0.8293985359394059,0.8590380470958029,-1.5228797047647504,-1.1664790845015587,0.17936421213411774
0.5624920120689264,-0.5764135121274289,0.3645330643503051,0.6619499176956671,0.9100435034131047,1.1204614079734811,0.08460298658509216,1.9365530990463178
2.2219417752323696,-0.9390065690329147,0.31127117996234793,0.17071616978794596,0.4758389058237272,-0.4966717751980896,0.09906692197825767,0.021243085021807887
-1.602627840300004,0.1523233341607249,0.2963561871697837,1.241706632603677,0.4552850568870651,-0.7884486820430786,1.1763360717308262,1.095084259562199
-0.4440615206184173,-1.7442016063140284,0.33953641648698896,-1.436314407962581,-0.09648219192940721,-0.24074238847009366,0.4746443023442903,0.7787014136342058
-0.23868061388377682,0.0816903439766796,0.5754406557555307,-1.2535345022789806,-0.7104839705807887,-1.1544209575354567,0.43023742443360335,-0.10899703689606725
1.9220442910316295,1.6702180281080679,0.6781438783598076,-0.8185662423997465,-0.41792440359877553,0.09739246344354331,-1.5906061080913103,-0.7233534042054618
-0.015774210347742592,-1.09349588715169,0.7890069466988228,-0.09061319608487033,0.474040926098651,-0.8779958522037605,-0.28968649812867897,-2.6131112105172742
1.7900508280439666,2.3736562282041467,-1.173778605728791,0.593519325749195,-0.5489982891332844,0.967902171690263,-0.6313953538181698,-0.32345594233546526
0.6285024861616765,-0.7077354558446612,-1.0584841076655118,0.4067764949719005,0.5647693134217507,0.4569810786058476,0.3948428282292454,0.8626556646486356
1.4200656374777103,-1.557685577375518,0.39899516608996444,-0.6342394564524118,-0.9415120725972742,0.18924640456453953,-1.0206369131975024,2.3548807197685884
0.7007854205348637,-0.7967224973461542,-0.05003599783444795,1.972336645413807,0.2033018236437886,0.06431461793100182,-0.14169886478062618,-1.3341594132053956
1.9172638149009325,0.5453931108147115,0.8151591682465306,0.7677251586810493,-1.836765611865259,0.1425586021220046,-0.9449783989035689,-0.005717654056783284
-2.658600217172675,0.40277180790109013,-0.3650624932507287,1.09825640121695,-1.6052634357242739,0.19118111301115168,0.02319616254591843,-0.061826158786423446
0.66773229221289,-1.0888507323241106,-0.8112432918494559,-0.005525203345245193,-1.281182784293963,-0.5114616824276111,0.6508248192174771,-0.21561127488088286
-0.8632166616281696,0.6400560129058311,0.9299640777980233,-1.5207537321011437,-1.3307089975968116,-0.41247143332408176,0.14610127559148373,1.84688535841066
1.0630096730829255,-0.8403133151748764,-1.1600706441899657,-0.04966404402591758,-1.3923201551914466,-0.5008392033939356,-0.7868017777036961,1.1972995520759249
1.3765613053966959,-2.1739912533488166,2.034527840154101,1.1900431496897779,0.24499575495303344,-0.6359498593780502,2.1041181202669224,-2.0279169222701015
0.4012101686888292,-0.9981117404235227,-0.9921904319751379,0.40854715121201296,-0.43651866454192967,1.1237896335318203,0.596910435452717,1.9728520652852068
-1.0780173667115185,1.2439236789829402,0.6094072490385204,-0.9706404325113182,0.38167301333444975,2.2000715919230784,2.0139001696872705,-1.183174759926062
-0.3530852992145496,-1.4642377633895756,1.7169331333461628,0.5621593790158755,-1.131830417261113,-0.3402441111722736,0.0476841300189462,-0.3622327188460564
0.2093478564987003,-1.732542897777303,-0.31762474575017785,-0.17702468769140073,-0.9970110076880542,-0.3016845480220345,-0.877601985452071,-1.1655644606508606
-0.7420945133722023,-0.5457076258797696,0.4161854575844505,-0.6289656367286582,0.5418142883048378,-2.1648894209154013,0.3262130749401229,-0.07507061683856507
1.7205832619646324,-2.057335853271995,1.7344196417060846,0.130619952689615,-0.15043105373435828,0.3898114712762383,-0.944948067281731,1.2334578816384854
-0.44687194846784833,-0.843641422189228,2.197205019955583,-0.9718378049472913,0.04290867727417687,-0.680939392806723,-0.37676181233080586,0.36966209152985124
-0.5151614877815928,0.6932338260176587,0.6809074263239242,-0.831961689964223,0.34771818728050236,0.3952879617130544,1.4132982144406965,0.48545249982901045
-0.08960075788709933,-0.3132479767242214,1.0134110190960808,-0.15515987850628618,0.5290037913804004,0.6235715937529726,-0.22343242521625467,1.4150795899424546
-0.4071262117535026,-0.5545092009544419,-2.33607971344303,0.9944732721685845,0.5151027421262228,1.2498485653439775,-0.6357005899779962,0.1878091104473098
0.09024516131642243,1.735629913744354,-0.29171853114190177,-0.46761913244463443,-0.4808460941032894,0.3821574515246809,0.6470194640727106,-0.8259836919520009
1.0864378149062819,-0.061650877220030924,-1.1527276202785781,-0.008949547006775405,-0.5659471966060694,-1.2659389308369315,-0.1258305368804896,0.49920804819160086
0.14534427744239303,-1.4846363632444224,1.1146813002151763,-1.7212418685234934,-0.24893154837539236,-0.41817361199260367,-0.7759938973049059,-1.3101219032470224
-0.29730722983414243,-2.3812808480407157,0.16134102877503892,1.0450486255103482,1.70663346466235,-1.2658934924558456,0.3793478670231629,2.071189208445529
0.36126197263803217,-0.24187909795764748,-0.23674308316561507,0.9317232162283952,-0.3972478956984559,0.4604850223060177,0.4093824186198371,0.13147154530218547
0.25096937527873586,-0.7513579491218618,-1.4861651792576536,2.5618686881356973,-0.25841424384145906,1.6547027899283284,0.5157928030351,0.847365722979599
-1.0080897192990832,-0.061317915765892524,0.7346445116786599,-0.7947039024626974,0.2644316063290418,0.5996508729717364,-1.5624802357648562,-1.3458678372466362
-1.3784444128378421,0.6433644477290584,-1.1356565549696214,1.4438240895304186,0.012811221639405932,2.60561128404643,-1.1260039980652898,1.027442279228063
-0.3307005070974264,-0.2770567542894507,0.499860922826419,-0.8740456794243231,1.9729903843641579,0.974456437130613,-0.11014297921979238,1.1644807537473147
1.2800330958875203,1.1977615595548388,0.011784236610928022,0.35617126802030524,-1.2974442060264697,0.6647777673182078,-0.20147485350635166,-0.7409732768532094
0.36218468247325264,-2.310002266503454,-0.8719789516141362,-1.5470740223866077,0.11841776154879917,0.10948924289869102,0.07651828953938995,0.4331025623368456
0.8643312832144613,0.06151710238692129,-0.7104161544514468,-2.034803156661405,-0.13297110846739948,-0.20111546272831146,-1.6870992574015793,0.640317384343214
2.241573671804626,0.5363565199416876,0.7681444980098237,0.7437464794961743,0.8019862601521393,-0.06483194441708727,0.2246849077897076,0.16021400414621675
-1.0990329815216606,0.9663642535361656,-0.24799548840103552,-0.4082379792816036,-1.0991726042433536,1.443366389330331,0.06956793480667592,0.43276480604782375
-0.3077478677367329,1.3354640657330858,1.0557835131383284,-0.04875856756846658,0.898499049846907,-1.0292716246703246,-0.38536630699123825,0.25557138340693214
0.6822834415380684,0.508980196472879,0.16843682671331656,0.1186118692829306,0.6631334138993671,-1.4472484563038004,0.8391110509014262,1.2666806785929396
-2.613669159058145,-0.3402635495342871,1.0545028809085468,-1.7876818490795465,1.940242549290875,-1.0896202667555739,1.890440724372956,-0.9124661028453043
0.07580778429906346,-0.9275304103569658,-1.158566703153485,0.5754649627683801,1.2550656764605208,-0.6116739261256987,-0.4471528331739194,-0.025063111641988364
1.2484515680762318,0.6907331380945438,1.310514742206157,2.0132802280750934,0.6623099540648992,-0.7479756205548785,-1.3690700760957273,0.20383613224350466
0.2930989488434088,0.11318520986721874,-1.2975514308354668,0.15625685017828322,-0.08870242638626406,-0.7365965385828398,-0.6582911652289427,-0.12006920574155126
-0.9169446144765476,-2.381920697471064,0.1796338904757532,-1.269052731394684,-2.0399479848290687,0.6850541411940094,-1.2119320615777465,-0.7906241806587533
-0.24567655578213937,0.20013781861367988,-0.13009324189109767,-1.217169318478264,-0.1556118913529574,-1.8691767952206986,-0.6038472579630922,0.6805888326543194
-0.31474945370431295,-0.30494556514645754,-0.6722784252268671,0.6885730364074645,0.666758474872302,1.1456852727292925,-0.571716716412649,0.9904329555003756
1.4764689720232087,0.7022642208811875,0.44049724793729567,0.15301860014334345,0.8281716705760243,-1.145906479554218,-0.35780392978354814,-0.21930158936466895
0.2596410998002758,-3.070560213420492,1.4892791999815675,-0.4513162516620115,-0.3772199027564473,-0.6938843418052796,-0.6594419366577605,1.672179549026898
-0.23067626448675022,1.1474495258011295,-0.296753407933117,0.5727977634541532,-0.7802766556063496,0.004366352492142031,0.5215238143642574,0.054272780825223674
-0.7228648972061158,-0.08603497493876049,0.9059621659780641,-0.5379163537309882,0.4461427266086272,-0.5461978527164446,0.5189244004342797,0.6970158032335904
-0.7569669013379338,-1.1167357971080871,0.7551628036942385,0.35180451041889094,1.6640348698235392,-0.30245154292135434,-1.6587339539750718,-0.2815109926679979
0.7258885839080066,-2.3226595661740292,0.9319254513164339,-2.107416720450568,2.225810222503033,0.1435022608071267,-1.510257136913675,1.3442718859047447
-1.1890052402223577,0.48255518987166607,0.610545102198298,-1.53474985447881,1.8938784490797411,-0.16515397196116863,-0.3884754886878169,0.7203746539428606
-0.673661895764505,-0.06003480371784576,-0.4509349537541737,-0.17625694909544065,-1.028651559437209,0.4917132210598411,0.052333804647007494,-1.0516021262665993
-1.0317523542048082,-0.21522888307202617,-1.5876701429656208,-0.6098766342646494,0.2988647373424923,0.768924036139793,0.6575381464307342,0.7773491557115063
-0.6053513815983821,0.35542694642180606,2.5051449881685834,-1.282271028231646,0.13890454928277562,-2.3827331564189866,-1.0407680106850077,0.4952706071864611
1.5336031637933163,0.6611885857717581,0.10492069926427897,-0.06576671331493777,1.5370428118228663,-1.5747268162598147,0.555351650578732,-0.05763564601238945
0.307323059620388,0.39364479631008836,0.7779093223764854,0.5631574542748706,-2.076720582797071,-0.2633631023203696,1.2699581674000677,1.7892620494209908
1.3514547851420082,0.6706122147361908,-0.03622435500243992,-1.3650147305807319,-0.0399356162319388,-0.5560718834183432,-0.49465034343798525,-0.473858525310001
0.4774455522896339,-0.21114353408477066,-0.42477823242387697,0.6610637441350837,-0.003910654144268861,1.8086790237631927,0.01612942365989157,-1.338506132610947
0.6791485977974714,0.9157946288006442,0.4162059513860149,-0.3758256187197573,1.4723642487728277,1.5103054141724992,1.5697351108088113,-1.4674199704665924
-0.2813164719514188,-0.017580067942104947,0.418221383334464,-1.1809645508080915,0.41584863029067476,1.0759199407659306,-1.2446226407645824,-0.32038575923494306
0.8089385564659604,-0.16516506009181847,-0.835894014092928,0.33102271494493657,-0.1011223351271004,-1.1420152150326113,1.10548275517843,0.7752991935169418
0.006844448819331715,0.6929224403526743,0.16156444137155151,0.7485447363219079,0.03474459312828333,0.3739512240512468,0.23176648564764202,-0.3290521363082535
0.1449082196726104,-0.42928850850044664,-0.574374112756377,0.7822072164822056,1.0430075778767065,-0.9129293192921705,2.4998058170143596,0.8640441190094654
-0.728319903788993,0.044053764653148336,0.9535768797533578,1.52705442470778,-0.24249287319936136,1.127179065446625,0.15371704809744405,-0.7919897744886529
0.5487792431492011,-0.7574520145175658,0.7869106173083968,0.2140521494165907,1.7478967151350415,-0.11261087937149068,-0.3506985977527433,-0.05109190876856156
1.805611028477125,-1.298632127547901,0.651990491494123,-0.6219274188471516,0.03334891650103215,-1.419477492692326,0.28028455527569407,0.10598617841184339
-0.4230245510133315,-1.5461018510500697,-0.17601571044015138,-0.34554549117607897,-0.049444085610385595,-0.8981991073697518,-2.144165503617382,-0.9598573986880414
0.5715462890597431,0.5114039902100441,0.15387927191934714,0.45907579487591804,-0.8375022469859162,0.9207622190597975,-0.42314744554600403,1.5453528609033647
1.093992309146897,0.8498455158846441,0.8585718467859739,-0.32098398767190356,2.684532726149275,-0.5761032033135606,2.050333063974303,-1.9691878320498735
-0.9097867600933038,-1.3629114033005363,0.8802468163246046,1.4533195062802458,-0.631183317920886,0.45260610854772043,-0.3761363659573793,1.0576539595257237
-1.4703652684919035,1.0761841478534895,-1.116861514223607,0.31791361511635324,-1.086008611567578,1.6723555776904993,0.9147231809344664,0.7608247920313025
0.8381225728368491,1.5485470521550728,1.6124766453734685,-0.5145272399660307,-0.6347874593767091,2.142884312411167,-0.13386773891641454,0.19630718838881092
0.028546033238991485,-2.107253041220241,1.1033126689860244,-1.658765265833591,1.083323984214771,0.5673969602510629,-1.0070445024514183,0.573524124731955
-0.3620610137423308,0.19550112161951141,-0.9059029293586902,0.8791733211173839,-0.18810212374039212,0.6443867024457886,-1.323996402933884,1.0712262254994727
-0.15940540469295975,-0.6914197358037542,2.193679009768268,-0.3067217822422121,-1.13171402498705,1.2159319437392566,0.4157642930131151,0.8725571245094266
-0.33840180245936474,0.44244616159713285,0.5992387972225165,0.7612874338846102,0.9911103221384769,-1.739076584256082,-1.1916655146153783,0.6184015027826926
0.7270297580547943,0.01991843322044576,0.058683197545919434,-1.1010824565223618,1.6311009314134015,0.5147980790915352,1.1497726127243928,0.611482665708655
-0.499083660276166,-1.5257721246471172,-0.39110504061597223,-0.6514552893321367,-0.95585330643252,0.20157760932732977,-0.20828145284008323,0.27505245484538193
0.06526695565176896,-0.590559748004553,0.6780832325640685,2.587836709018235,-1.412928967651397,-0.6676542532392337,-1.9469179668276388,-1.411551325834808
-0.8216684757050773,-0.15329945316214247,0.7066914669621541,0.7639849164387799,-0.004352720829793163,0.14332266551360814,0.0516792618804639,-0.670672036544127
1.4951057776652714,0.637023467181126,-1.4467899061501266,0.11130586615143227,-2.655932149278924,-2.0599753234283926,1.6832654964679226,1.410561019396387
-0.8083105377372559,-1.1983924405574617,0.11851249914814978,0.04185668720663663,-0.8797499099899802,1.0481681679241337,-0.6600089149498302,-0.588986661388198
-0.358325612378932,0.5993618867599004,-0.1784413476427037,0.3060704258207859,-1.4547157873239889,-1.6286469567784438,-0.3185040507506132,-0.6956068765667321
0.9425058355370287,1.3037405901913914,-1.0872593389688792,1.3355685946247082,0.6058406752494634,-0.014544309029410587,1.83557627092981,-0.609098767358874
-1.153501424592202,-0.35876737192875197,0.1932131991012561,0.8670128448497048,-1.595662278755191,-1.6007280606163035,0.48874618731467245,-1.0875929074679591
-0.8165791276108066,0.8229427615557902,-0.6823514535907523,1.739359694104879,-0.572432886639581,0.9902363098629178,1.0902664633796513,0.15006524192634962
2.0890265027158463,-0.4989692377089788,0.7453685940325945,-2.1176777661934882,0.26875075457070813,0.07011604546454808,-0.8334048206095442,1.1441601281010059
0.8437616386098177,0.8793756175320504,-0.2407979815978021,-0.1926673874535324,-1.192083361403214,-0.11465126119740851,-2.026166846290427,-0.031740929977228695
1.8696590686425865,0.1298543340187527,-0.49641828915924285,-1.6157811426422461,-0.13010612365988186,1.3849437663695088,0.388737293725033,0.7115751839196557
0.413531168052413,-0.6231008649309827,1.3160488440590694,-0.25273877731705563,0.7158534338961039,-0.3954836046932868,-0.8879536534761402,0.7954178870528301
-0.4807795845007808,-0.8691340734864114,-0.3256478192664343,-1.7919286203865523,-1.0163309513371073,-1.4928137932755916,-0.7023257741023382,-0.17234448418252934
-1.0291801814975918,0.49068966719184115,-0.40909816850226194,-0.37706900525683645,-0.6695314568935408,0.19088633264312044,0.5301521427060243,1.5899621781956699
-0.5860671215100393,-0.7133204351458678,-0.9824839947672054,-1.010522596514332,-0.23061063572981597,-0.942612004005444,0.07029714123853746,-1.711343711560156
-0.5456718789788368,1.2696204302661587,-0.7336300759063555,1.4445373244396364,-1.0385452282244383,-0.4704436446073559,1.4235966608321757,-0.6137042868943335
0.9658832296504029,0.9735611974174678,0.3031111253572444,0.2644402552306085,0.7993539267537766,1.0515058513525484,0.5986400980582374,0.37648394477961583
0.17472266715146426,0.37084581552371654,0.3772391509517002,0.4801057512004254,-1.235716358224168,0.39756928089589777,1.536430196849817,1.8123940081440038
0.8967533350499438,2.1209961391739345,0.07499112807259307,1.7397711675890781,-2.37924005111361,-0.6461455874302356,-1.2445418438875577,-1.0751718183603982
-0.46542432222158786,-0.41926165330096266,-0.9978403769977345,0.2351307825503835,-0.6948361676221682,0.6305994193479533,0.27282845452221866,0.8078168172859692
-0.9052818649315756,0.8784850805391083,0.3886417729965727,0.7861709963476562,0.7660494218124141,0.24578966249934245,-0.8672879217533848,0.5522550827323336
0.09574562454446704,2.0072319617480687,-0.549075905579688,0.9605945207839623,-0.04581362513067668,-2.009635823877148,-0.15270296714932777,0.08119395515442732
0.6523197856389837,0.34456371937888397,1.3032580937048266,-0.4542721660776775,-1.3693338795333245,1.3917080612645518,0.8266099058804932,-0.10958474365840368
1.6873563429689504,0.08452616717762541,-1.2759909758598933,0.5018960399122476,0.3512464599578181,-0.4888099484283918,0.207350843770837,-0.4351279578707564
-0.6368068531632289,-0.9697752581810298,0.6403310818366479,0.5591981157040267,1.3567165926141667,-0.9617646988095049,-1.5140059664024537,0.659353489972375
2.999933288233979,0.7986155569486336,0.02372458023687684,-2.1450895211558705,-1.0520885830501925,1.7557283739308824,0.3886212203332094,0.6406869224754617
-0.1806491441988295,-0.9643975129420311,0.21990730735750644,2.091609241768241,1.7917957970608633,-0.6006447702832705,-0.33372928197185725,-1.8820493016601214
0.5719217187311946,1.3649916786514384,-0.621316438775444,0.4123425812932644,0.20496583381738767,-0.7517903991666149,-1.784433545013055,-1.1972056176418973
-2.037662035372316,1.5081192280714597,0.4094347168079826,-0.9371063065333353,-0.3491695699971346,1.6821380716942094,-1.3577991249612111,0.17069746932436436
0.20003789675820519,0.9700135399138363,-1.1635662517377001,-0.5844494356822179,0.25339071027340554,1.0338079716291015,0.7359466861346988,-1.024018215892122
1.0348278823254664,0.33064856161243344,-1.1108786163818383,-0.0018231062231574577,0.9561559249584308,-0.9419635614073816,-0.2664021503406959,0.3486254469006794
-0.08961496416250139,-1.0293939581888896,-0.9166133446587145,2.5294235997863943,-0.48495083727194604,-0.00606739948446055,0.5560961344211398,-0.4314515475882355
-0.8877949922398536,1.7368406002292842,-1.284494776145327,-0.1787578101373689,-2.0738855853729383,0.7931662741709268,0.7646227177338691,0.4819215674843339
1.0870453706043246,0.9246734530018618,2.4559927809615423,0.7176223724997449,1.5575284242660627,-1.0486450123823814,0.41955581686378124,0.018220966970751647
2.0264301724636256,0.13416854669920603,0.8754568811514005,1.6537024077863431,0.5513509496649336,-1.063539667732113,0.32818295323428615,-0.006456742764681035
0.7406458819448088,1.9739551792428662,1.3164027245861032,0.37995790777973726,-0.3860117708529503,0.8461080080902038,0.5253817581519392,-0.5534599993122293
-0.7664617493620176,-0.21432817578587132,-0.005228513934316118,-0.6408129083473899,-2.903987980376976,-0.8941865524893815,-0.5182553183158655,1.6118879541824374
0.40128665847567757,0.24792269918427073,0.973379858580981,0.4789424788193581,-1.1792512442377459,-0.27249074733395495,-0.27487199903768733,0.5625630198733103
0.4138886370965058,0.37078706410282614,1.378969581521061,2.283368474932656,0.8263758511741337,1.2819692287097966,0.3261278741506559,-0.9578351025771863
1.1513813321325246,0.7786896385475389,-1.152404407498044,-0.5153691097699382,1.249597032393521,-0.24600443003374706,-0.85220378287889,0.24442925881908992
-0.7554546560351229,-1.5245432934323646,-1.66271537811191,1.989653425448234,-1.4372239501346111,-0.39397598440154363,-0.4780349472131709,0.06475296964526364
-0.6606758635448479,-0.46345053621227084,-1.753457637122605,1.2916398836264136,0.32340691084464923,-1.5495999710567832,-1.294601624676124,0.4729747868210947
0.6329538582562599,-0.21192232002407313,-1.0639534123587633,-1.693641735844598,0.4508315821291435,-1.1740191928559052,-0.4394042674036404,-0.429732312996362
-0.15423202070725373,0.4516891142582271,-1.3363141644360017,3.0457259104915906,0.8531557411705486,-0.6785253787584221,0.9987343857814723,0.4661249804397567
-1.4517590214485823,-0.603854672007819,0.17178547552825352,-1.0745549716492724,0.5283403786592027,0.22173276583273938,-0.5636188801929894,-0.014684913401778465
-2.246563681994594,0.6991221195764837,-0.9207229097276293,-1.4199511199179629,3.7673516760801817,1.4696458926980778,-1.7853827362341363,0.45644103082611104
0.7978506082199811,0.19178120062048107,1.2360772877727524,0.8194931392189823,0.02742678767474996,-0.33580264912129765,0.4365351647164356,-0.2669215668817803
-1.2436752670375235,0.7051410064225153,-0.3877300920533551,0.07740938536411332,1.3587882846739048,2.1406572710807192,-0.7959354226701814,0.15063858783559966
-0.7797382252896141,0.9287443222839572,0.05457326270044368,-0.8149133147604194,1.375119551035094,2.6033412684928265,-0.5247939264454927,0.7952668111134418
0.025425973215447678,-0.9039976630168705,-1.1155900306278024,-0.38839507774199516,1.1066998420346523,-0.09518020589409713,-0.7196166483853141,0.7541372765585658
0.9769104446870817,0.5813597687748784,2.0982833694478993,1.7015390159163626,-0.611456881281115,-0.3587428191930727,-0.5745057059226901,0.8142155704676406
1.3124063064527631,0.660410349793549,1.5168698799259046,-2.0229176383426197,-0.6849326833720565,-1.066686549665585,-0.3105174231212035,0.6696203203197872
0.31943840792374034,-0.7796501242690057,0.9061270859146703,-0.7159155166128208,-2.307028826664386,-0.6823924170850074,-0.40293939845201665,-1.0549753844155378
-0.4329733271027115,1.0805284128608066,-1.4097857171225057,-0.08629547103574155,0.34728621764597006,-0.07478406053971566,0.6104498241762284,1.2821837425442995
1.0569578734908387,0.9924544654512466,-0.12168210544087549,-0.8639648781516691,-0.7584611984454247,-0.9763960127582785,0.6044412182456884,1.1468517800950502
0.948127161235893,0.5235751219836575,0.607181686454142,-2.380363322469889,-0.20376139469819435,-0.22108249984191528,2.0251499457960493,-1.8599351717737413
0.21721377833453884,-0.12218894772808651,-0.7214942612259998,2.045381837072331,0.765212228887723,0.09366408789614868,-2.251148066462301,2.0960836477692237
-0.027673012885724473,-0.39495672938025606,-0.07112750413027868,-0.48881854051309964,-0.3071263240150902,-0.7010024385834984,-2.5697655368515213,0.4297596039992014
-1.114190678028719,-1.1227950456948241,-1.0727331857623383,0.5740041809499602,1.261329653027911,-0.5672553599742092,-1.0017945217603559,0.1802827940061746
1.2603953499122773,-0.6812280189790423,-1.5421497964043773,-0.7447053755360347,0.8061945499891762,-0.5154712560558592,-0.16556658322346085,-0.6170680259343221
-1.7802195651563708,0.6259012538036349,-2.0360398229892396,-1.1227476573116006,2.153986852714561,1.9353140910776039,0.7536779114212159,0.7067902690468119
-1.3362423270647912,-0.18503957466790433,0.19663391803009556,0.5789203677277357,1.9348694802439748,-0.3602413576407574,-0.12598451490694168,-0.38999389264018147
0.37229303842195266,-0.149137967589387,0.32224171275459296,0.5640540548054828,-0.6355071296243445,-1.3361741109225498,-1.106980310549555,-2.1732610642313612
0.6825156049056116,0.2515215916308775,0.4899342327184226,2.158025599648929,0.6811951714622229,0.6740119621350105,0.40341142638970273,0.8679119115428692
-0.4921436542512111,-1.2819531397617134,-1.326434172452098,0.6344695332095116,-0.6758711767536417,0.5635500589261934,1.0487575571683252,0.0969329069951013
1.3596990134290545,-1.2896788670149586,-0.5377112760058599,1.4183656603117096,-0.36075220821085646,-0.37232857151405885,-1.5877956400429485,0.8461262281360935
0.691183185366746,-0.6779518198097713,-0.24865681642273138,0.3915187422220447,-0.47891100481284005,0.7978556149835434,-1.2026747218083358,2.3184174636327994
-0.6602494853703207,0.5260801519433751,-1.1323456038535509,-1.4702368954916514,1.3054736566277751,0.1564144168215849,-0.31248084091374767,-1.4178535199933928
-1.0902758818355092,-0.18107697742451,1.0225850090974893,-0.9766805733096696,0.11372210688847667,1.355503998958301,1.9740761461437821,0.6844917674830743
-1.646938475628489,0.5168670617536404,1.7421718964205788,1.1761154033608594,-1.415244275004556,-0.41616244211498654,-0.24571375539190873,2.0012216390533
-1.622482571480782,0.32933736950766485,1.5254959518833315,-0.6008853456897607,1.796257581899261,0.7389445383974841,0.5748924638528523,0.006791114027567432
0.6977231402150456,1.0725950247898373,0.5964616648785386,-0.8300665197828843,0.5944764835691925,1.0305227134722967,-0.26812995020697017,-2.7426505941879546
-0.3711388400064032,0.770408982739527,-0.6494096932708874,1.2503108628679174,-0.3517340156350914,-0.13383751030238097,0.5547273926602733,-1.3891695020587922
0.21606253154782135,0.23273912531947302,-1.4675054744623743,1.9620925344178688,-0.5242553721287908,-2.166336307500762,0.7746549629118057,-1.3017725811273788
0.8568579340673856,0.616713610548896,-0.0697563997567688,0.056252948820300144,0.008796628836133821,-0.4991307455672245,-0.30446047390802655,1.5288892563831287
-1.1946801937480633,-1.4151934971412807,-0.39096471753902245,-0.5882820337291348,-1.251289893864808,-0.21927382403642728,-0.21237956744238265,0.9024225001512276
0.17334071226882244,0.23909328239032598,0.5189222283525108,1.0251138671121112,0.04270863240757566,-1.1879203350473864,-1.4139439095276907,1.1349464731651637
-0.6421756147640045,-0.1298712841962392,1.4053155728731601,-1.2851303893470414,0.8875144131094405,-0.24395681629527996,1.5572897899926101,-0.7192834104105593
-0.7172434245838573,-0.4634036709678316,1.348607515037229,0.228114417149575,0.5760484003152316,-0.11365182664252367,0.349302776194182,-0.7123762208586178
-0.45237038442644933,-0.11499932099615408,0.1441432120150241,-0.9158439646335598,-0.1444033650024206,-0.4238321240144297,0.6170173109888161,-0.5803628830735931
0.42891622447875494,-0.6000958355071012,-0.6058870804919666,-0.3197888937265996,-0.9378243573585905,0.02676122580139236,-0.562639582100145,0.05577630484859645
0.350929735896693,-0.6287256067058212,-1.5236806232961095,-0.5285705736400972,0.2827154663448381,0.2933461869884245,-0.39925430129536044,-0.7597309455656108
-0.26856363854748244,0.26307257794521505,0.35997811079150666,0.13385171438867222,1.4116180569919747,-0.5246045982199582,-0.6629843899110965,-0.9170080188596044
0.5902797203076976,1.5936042308897729,-0.10331145259723165,1.2512351310432952,1.8253583356011465,1.6343521768666351,-0.345759576418295,-1.095308455366344
-0.4335188976607629,0.30820463478131516,0.8204121092700379,1.6143863647336458,0.0229798674440343,-0.5400722150506166,-1.0734444933128362,0.7346618625249072
-0.5893653450577401,-1.2423218532449596,1.618242525887375,-0.05053654446154761,-0.421825134711467,-0.5702546121451395,0.6689615719806111,-0.5063926514208392
1.1852413736036118,-0.5560793741232258,-1.310496026451044,-1.0692149009126444,-1.638875114284482,-2.306523409925462,0.021776070107824702,0.7026627415403954
0.0133780795732767,2.4424167581667255,-1.1635833728328113,-0.1455652207222667,-0.01663791623641104,-1.058935622155553,2.7030615527828075,1.386165961351856
-0.28345144604672656,0.0878046889095047,0.3402218274224378,-1.8094468578834695,0.7253599498644112,-1.3778013406269476,2.1754157381474544,-2.7505058980083072
0.410163226408979,-0.09634385467513693,0.062389436499668424,-1.6745709806966207,0.10420324431747717,0.6220919349824496,1.0515086622488414,0.2173263094646489
-1.4186184416023289,-1.0999408295132422,-1.0118487520372543,0.5404745631011895,0.010528174094101526,-0.3091554586977384,-0.7381864637750685,-1.2430654980404066
-0.11171868041932166,0.33933974984771664,0.3810155275812096,0.8012777684262172,-0.9430769080197084,-1.105655646944069,-2.0176823918780102,0.5221713285959927
-0.3859144153557108,0.10362191050761974,-0.02559921121717534,0.4259296002305958,1.0959016082043271,-0.38536407555570396,-0.2616964344846486,1.0268960833620533
1.0853279151934914,1.6418700193595945,0.5032874543062232,-0.32531108823161053,0.048997285304431065,1.3697883704519254,3.1665268600571785,-2.0784582377302994
0.7987964189260527,0.1947484620989528,1.657467679943898,-0.7703040246589822,0.7523445346632498,0.41920423404448043,1.6358627565827764,0.8966238165503098
-1.821725010071175,-1.2533560109149664,-0.76712639297774,-0.6330707275092167,-1.4492338623523429,-0.38002725890277733,0.8885369241123163,-2.049505924336734
2.6884044939340757,-1.6051443718473,-0.7075106744694708,-0.8616008836976903,0.13078217896194438,0.6162818218666808,-0.1670109663092761,-0.729896342546767
-2.144094604539284,-1.4432859329564198,0.48619778598563096,-2.1993756107639046,-1.4161516331925672,-1.2198844740416477,-1.008304173288977,0.878756536244173
0.4534049813231659,0.7778253803998604,-1.1403725844228294,-0.17094765207459572,1.0522574099489321,1.539290408159036,-0.9358158519422097,0.28655171564122983
0.7539010210281116,-0.7013775992327356,1.4955972037479228,1.2576262587985327,-1.8727444597361305,-1.8690812967487727,-0.21831145909195174,0.032587552047857966
0.46058518507107216,2.9010736425413164,0.7491375830495189,0.85071569521142,-0.35251333139346963,0.17735342726041772,0.37197648499384167,0.44225380391075425
-0.3365411209083116,0.31303537477346344,2.070190945304296,1.3961176337834593,0.0199607348214468,-0.769636724735575,1.5468456480542248,0.23534997602191526
1.0527229152601938,1.3320625855768489,0.7322486375384606,-2.094324342438717,1.2321501354005377,0.31912080980515645,0.05191251354973696,-0.10768782133586122
-0.4604787877723237,-0.3393412079293279,1.1242687632482338,0.10675041618570356,-0.7034803330179639,0.41552548490840163,0.06086195345242881,-0.2159494919155483
0.278321375392942,-1.3985541810847206,0.5961025201614668,0.7261417181913083,-1.748246676447123,0.7330859735938272,-1.0243444192287328,0.2754382160814473
1.5295845686005725,-0.14116743251834432,-0.02986348571855624,-0.40168004351993314,-0.1572536068141457,0.0107909105421135,0.2458486050278318,1.3741912262056424
-0.362069774075108,-0.7449728770764609,-0.8201889519116833,-0.47188588937892867,0.4172344078361915,0.6454033292813917,-0.2534979401073403,-0.7485685470782353
-0.7824408334900776,2.4954211097388668,-0.5148119822357267,-0.6868264213959845,-0.7358260602003697,-2.1617200712415214,-1.12726947157309,-0.12611505559593544
0.8883468708552332,1.6137060708364708,-0.11762566583864757,-1.1680027274079476,0.5858043533342374,0.43707244065930495,-0.23253310507475636,1.834443061884564
1.399092284214523,2.1080085172232783,0.42969876043991867,0.7507820432540031,0.5064310255953696,-0.10461357556499112,0.7276243106383029,0.7274866403544464
0.058925586236458674,-1.2805486662337915,0.601868957888713,-0.52729788333254,0.2414200913256385,-1.9509681513228343,-0.20671748974302603,0.12034653164346613
0.7375295028105936,-0.7234150163733131,-0.6679347098690719,0.7723927413095324,-0.9581122899943377,-1.7522550867845503,0.6241534089923654,1.4594058647131924
1.4530049608127626,0.5167699482237416,-0.9638098992549267,-0.9596730504618152,0.4348979506573693,-0.4051315246758479,2.152937995163223,-0.2000964862857183
-0.6920936909186826,0.2867368113762124,0.4947940119726582,0.1617921985239571,0.6000141093523037,1.823535703378138,1.470213245193329,-0.2873817367006119
-0.1073231332284435,2.503911847622563,-0.26295978380932267,0.15759633176800664,-0.470569264093407,1.0035601669798848,-1.5016051612892103,0.817714264572764
-0.32567080981375435,0.8700325445892457,-0.5425039989106116,0.31437259641562515,0.40819036095805566,2.673804275321705,0.7073368809298824,0.873140827937049
0.29095919558492017,1.6230320760423291,0.7674194556084932,1.081904966156344,-0.5179073529125585,-0.5558389982424803,0.7412710300976486,0.14985063838679655
-1.5516668017531963,-0.7841929697712732,1.0947664411732088,1.1273732077246807,-0.2851810873863429,-0.3163019561653207,0.9622191001931587,0.3163730398546389
-1.0054892095505628,-1.2229644687567804,1.1875068701057896,1.2606461768787525,-0.9957027088801859,-1.0374755049382445,-0.5936199068772768,1.378368132102147
0.011836417543081575,-0.7799821701353579,0.2711781321277953,-0.6995577381297757,0.9231427929298917,0.8649037149846829,0.7455077232546962,1.3982739712765904
1.3675570732441227,1.2531760527285865,-0.9057118640581971,0.2093979777628248,0.6037450660011137,0.0660739431547644,-1.119018877652643,-1.2538416245365755
0.03499791886264397,-0.2763081184029344,0.6696026179036149,-1.2532790846849868,0.17406512528080662,0.725420882576321,-0.36487526018767186,-0.013200246641977486
0.9535371284554814,-0.36001840741383045,1.1386240907027796,1.546530705687034,0.1660228054487976,0.5654756529960625,0.13903431053784787,-0.21904203083176593
-0.4385863361246706,0.6997849997910209,-0.6429137754644443,-0.49126388543268773,0.7415563788551814,0.1867498290186264,0.7051948314502134,0.20939333793050469
-0.582730792615378,0.5309507760706702,-1.7969845405933977,-0.060309158932912554,0.9655795636609478,-0.19677168568440692,1.7904085122433873,0.28048637360847484
-1.233182733924794,-0.09051101726425,0.15162143530580932,-1.6714334652463225,-0.7318288477760894,1.4003502936169334,-1.2079339459204503,2.6783712869330656
-0.42518747246758176,-2.100481547165106,-0.6233342071848104,-0.713533269680971,0.5250169567973086,0.16701566947850527,-1.4806647957551111,-1.058171422150085
0.12782351864007732,-2.26238223830371,-1.1667886938061236,-0.48357505635933395,-0.37685837087201757,0.8844254575964812,0.41207594715782475,1.4232401713768346
-0.8592245412732568,-0.7106937375545743,0.3052244953379239,0.21002560288195501,0.6955992785368551,-0.46770976974619266,0.9453022742873353,-0.9229860056679138
1.392947145425752,-0.23795951594686754,0.7332969371242719,-0.29034312844565285,-0.43697826896287634,1.3885746934915726,0.9488738308341226,-0.09263153587728452
-0.4001465477796767,0.11273205743389242,-0.36345587158981024,0.4696286946917396,0.18559867603940272,-0.3021844493644368,-1.5394818356397049,1.0854574004041992
0.2105250524210874,1.0034192744552546,-2.303594202511799,0.3547891175949092,1.7916282880609993,-0.6239781087726263,-0.1154359264785316,0.4824982003575248
0.8459103079297097,-0.24144216121209167,-0.05596080820095145,0.7450330147177999,0.4135174881386193,1.0878227150870856,-1.6147656704129114,-1.016631882242772
-0.31455847022832273,0.0381402734472489,-0.7138570356248914,-2.725652430995832,-1.3205296250285983,0.05800479759482703,-1.9989073413185192,0.627182598021256
-0.722721735131928,-0.7679537635648513,0.35612979255303645,0.28881743926981196,-1.8244161324524597,-0.0002462797390818477,-0.5656830226612832,0.4616776250039983
1.3280938961371458,0.18310181274063997,1.2680126961495355,0.9406920011829467,-0.18186143172125038,0.563777845254945,-0.696161280801058,0.31913245234581394
0.930970172038254,0.7270277808506842,0.3717886320003198,1.6695706289135195,0.23179042689818394,-0.1749921422445469,-1.118191124059744,-0.31712703152738303
0.3836183389557407,-0.3698720758540105,-0.8808013477852756,0.14479437099058948,1.1770263887521584,-0.01286272816411925,-0.021423182608703892,1.2905082062664057
0.40803389838412113,-0.9444388741075761,-0.7123666045155149,-0.7430484954003511,2.6118251322650887,-1.0217771044807638,0.04900777458273404,-1.821199648791073
-0.24857541401084907,0.16222701034570727,-0.6790068713173033,0.8011552203750768,0.6487330091294936,-0.7456794102403985,-0.9413505011274917,0.8907405862857749
-0.5188646587742509,-0.6277273786910919,-0.24482425303761815,1.1234488800670144,-1.8524214443486458,0.5072953786728768,-1.0759754410428783,0.4488515250673494
-0.3044551030452126,0.41930932987720115,-1.901859188006475,-0.5195533799682186,0.699197417377118,-0.13031580802975987,0.664238303272912,-2.3590280923569167
-0.6589495366443648,-2.1659319315126417,2.051961754623373,-0.5060808037340268,-0.7664686233575686,0.31595769821012015,-0.1697527084733082,-1.1509172373786398
1.541553141984388,-0.9982045149670109,-0.22054971814058114,0.14175760928779302,-1.2492954996038472,-1.4552607779670936,-0.07327447485780116,1.485857110859683
1.4254440415766905,0.4145045117625116,0.012433613794171187,-0.1787743560036282,0.18477905476811338,-0.6021726266731218,-1.8703022484999807,-0.20775837742202663
-1.4134496676001533,1.658898960266307,0.3123162234071746,0.14265182523699915,0.9287487462851702,1.4492005204160705,0.4108034939628071,-0.21479294608693236
0.9329153521289228,-0.2574201969461295,0.7677807133013985,-2.270925538827492,-1.3534242271620842,-3.358682892644014,-0.3128688209337172,-1.2613528180136264
-1.8987360733486538,-0.6482675408541017,-1.2921542950805858,2.7008321330297322,0.5122750560175307,1.552555707488479,0.04883423561922547,-0.2763387365685998
1.2180653665474777,-0.6004650538620961,-0.39916642821441783,-0.42536014762398067,-0.5692824709138734,0.9594108299220291,-1.4096242751948629,1.3638690521560937
-1.035849701354008,-0.8257215509312659,-0.6790913247236292,-0.23179920556715894,-1.591743107388114,0.29708720296814217,-0.8613314796046883,-1.1005469367102352
-0.34686010774343246,-0.2744797941837859,1.9200222240908547,0.21506299137319843,-0.454153748456221,-1.6126834847358567,-0.6306513080320418,1.1616113648474737
-0.09329352207841221,0.1726890411612605,0.1670684931653729,0.4173339795849381,0.6525005535785106,-0.047586221268232407,1.3907558924667272,1.8215362041205778
-0.4960506295342932,-0.4665162039644832,-0.4749247998886476,0.5828295246762921,-0.9800992550709606,1.5432869764342318,1.5689744549969311,-0.8039791693815947
-0.35763862173355077,-0.38179624016377156,-0.9153757852232473,-0.3674748758842192,0.26466532909883383,0.5343678021206498,0.2772782706400776,-0.1770569933604591
0.8526926121945624,0.9896416498791826,0.9102989403014967,0.3291549941768055,-0.142147391628552,0.45549464163875025,-0.21165825666889995,-0.23607735356626494
0.7110183792027623,-1.8305052578621692,0.5376136955679373,0.9678747481426019,-1.161610811135445,1.5160221227347512,0.693125320078758,0.9609037664528156
1.8334177724764746,0.31652333747441896,-0.7910778549085529,1.1849147860222318,-1.80977499373481,0.6483068418809131,0.2697023911274942,-0.5439378391208206
-0.8842176685042795,-0.660962833501031,0.475658139785784,0.06596919379629437,-0.04035908338265919,-0.6118949217779662,0.5604929843723844,0.5246442265513369
-0.3033067314499035,0.9577465607892381,0.3346896316483808,0.11592788328882075,0.9299065498346001,-0.5568317797746695,0.6804936658228994,-0.32031944103195675
1.035745327494339,1.1817761223291803,-1.5822869187156212,0.5416221919357536,0.8100365221914982,-0.5120456866347772,1.520342701052016,-2.2841453993962193
-1.3358852677209638,0.058130465496012834,1.353173451368169,1.1376767052372405,0.7968571633741541,-0.317904158122959,0.667669592076096,1.3471591558256553
1.0890273728917095,0.9080464110978272,0.8867091464020719,-0.5276225574659547,-0.5192461726111527,0.7463590666753438,-1.0758497197679886,0.279354860701866
0.3466576479678849,-0.6087351697890596,-0.38607413801263807,0.3457130300063769,-1.3412227681232969,-0.14492667917476398,-0.005546962133763412,0.5810277413463079
0.9609844533725195,-1.0232016972140647,0.622161032883576,0.6175907312620431,-1.4699393520052133,-0.7302906852155957,1.178337340916866,1.4094381793912079
2.7039382884493195,1.2239322572368727,0.6127352448299855,-0.5630181831234906,1.443423719516438,-2.776717659720732,-2.2083638856300185,3.043746683459906
-0.7942538315771267,0.8371202587449991,1.5110456492628515,0.2086049701359878,0.8686937893959803,2.1386938426299236,-0.04245795348956128,-0.28264328425380236
-1.6335747689926923,0.0959751051583439,0.5404955118878642,-0.30856181328312116,-1.134238197478763,-0.4657707891472415,0.7143844097056425,0.232758737076432
0.9996998624082458,1.1707465250251472,1.5821748182464692,2.3884408950729203,-0.02906004821949608,-1.7184540033437,0.9102516792150271,1.3904338370007967
0.4993933200990987,-0.43724313541355914,0.4147923500059561,-1.0433334174819415,-0.8063294526473233,0.36045856578259555,-0.4164086860780413,-0.5127430674694096
-0.36932549782222057,0.1769234391586715,0.31831837713935,0.8353666823798015,0.6700503426315012,-0.524516009810104,0.11225023059299448,0.17048664657791032
0.3316112779616168,-0.26399476081208406,1.0740912415904809,-0.9024830380497675,-0.710202856921265,-0.30057117989450377,-0.5375458269424044,-1.3312592292080032
-0.3920208819914965,-0.09770138472873433,0.34319834935033094,0.5151623471680301,-0.11957148840603536,0.3837353502529308,-1.694646199838202,-1.0295267490806035
-0.8856750478731445,-0.7318509378231707,0.15943523102845655,-0.3608141923120981,-0.22236378030541712,-0.15071481229317382,0.8128451465504208,-0.5723262416040816
-1.1003065392677334,0.6403301490022497,0.5747359284603144,1.7696702486785736,0.9078236219640703,-0.22198735861791669,0.4771746612747991,-0.7388378968202409
-0.025216099114427716,0.24589159334135763,0.5360494054152223,1.383133043112134,-1.196793178799933,-0.6079419283252302,-0.5652190419970661,-1.9923216687305885
1.4994873655958467,1.2402549759414647,-0.2558960798140954,-1.0712001178568404,-1.0774486832564574,1.632374537347194,-0.9662748850963692,-1.5846257199979665
0.4980947933329181,0.12189945277084803,0.7055832797237512,-0.46604979085661724,0.6405097461851964,-1.3676536110132735,-0.620109581024638,1.408389376127175
0.6615887008216863,-0.5615974764292242,-0.18331314383327107,-0.2139200903670354,-0.5599312896775226,-0.12167252311151457,0.7733157719043905,0.42655863510929903
-0.23322483758955942,-0.33655591309999017,1.2675499362949727,0.6461732988352876,0.25581733214370506,-0.3402172989717191,0.019708926519758616,-0.43040014269634513
1.7275886287663496,-0.4743835508151472,0.13812582286687725,1.5038994696853623,1.27133554408488,0.9015290668537573,0.33744518760944303,0.5751424794612932
-0.24918617213620498,-0.09327456458245893,-0.6825604159737181,0.7519991719826028,-0.6924356689298405,-1.28276456667732,-0.9496524263502021,-0.2968236890508586
2.2199882654490155,0.5098270156567859,-1.1885104459304983,-0.08720682921769574,0.16045726349138822,1.2796623645048255,0.9605706830179234,-1.2154739262682226
-0.03221005183768932,-1.8231183465673717,-1.4120018277338586,-0.20088320246021565,-0.706537555597758,0.47198921100915303,-0.0352987621491832,-0.918864450689371
1.2364431458118907,-0.3004610888103782,-0.02378312631112976,1.1497572799059346,0.29593864054882857,-1.3765396363065239,-0.22579514014103783,1.9007178155744662
-0.43363341267083005,-0.4247908710712192,-0.35785101930378094,-0.4875487814239165,-0.10679931082837409,-0.7522183219373704,1.4646637880101987,-0.8389467800341852
0.013166456179275931,0.7095340863558888,0.8002549247225148,0.6160354043305301,-0.5309673264294993,-0.115492940341119,0.5305525981377567,-1.2384367476927416
-1.797793348537971,0.5681796349455189,2.173120375886888,-1.0552019901776883,0.19469082750266528,1.339283284435859,0.6557663526823031,-1.5685128896297502
0.7571694104882936,0.29325640698096866,0.11236242953389988,-0.70630093521437,0.077446296446711,0.30386625147579477,-0.9302818538132597,0.6825512335127296
0.4017324803220535,-0.08465960361447974,-0.1429741976438248,-1.1983472673272577,-1.397690689947279,0.3355757427283818,-0.03587976467159343,-0.6807031592946391
0.4762606384688324,0.5639679427771441,-0.9771088749483978,1.9731823758537164,-0.388767437189934,-0.5452048380062161,0.11450483824302017,0.022137717974971206
-0.4295580351774695,0.4338224461198614,-0.8909020582533786,-1.5375579707896254,0.19526361430702185,-0.6701047355136956,0.6348176704487236,0.07496736339497752
0.393308414541436,-0.6000436859040427,-0.776356801412709,-0.06921131569253043,-1.166648499560564,0.14023397308727575,1.432865136266089,-0.8768646545531148
-1.2093027928121416,-0.25775982656102386,1.1808751510167976,-1.1477699567896698,-0.7065489171969955,0.6294098394362219,0.10610199335303486,1.0718049994921381
0.33202930873490955,-0.2724721614531961,-1.1116030779442263,-0.4339012206196792,-1.174712220040554,-2.175170734345609,0.855056452511082,-0.33430034490266514
-1.2573578981670293,1.5116219442745908,-0.056635103191911944,-0.3920547470873946,0.8682702331225287,-0.8681307544756653,0.8704345378383268,-0.09034918821501739
-0.3886779896823761,0.34630522552216225,1.2317414015795518,-0.5757635625340083,-0.6684206431087678,1.5971585581399477,-0.7594831046690359,-0.018630293848543093
0.6980165667500046,-0.6290173114380766,1.51877322318576,2.353869942971871,0.934743970310253,0.2693662434181213,-0.0690790902569361,-0.4613205218462933
-0.04400647568898307,0.8092597996284938,0.7655204917939066,0.3761475513868462,-0.8878788567944012,0.20286954894255263,0.7297403910881289,1.4526139138501035
-0.5886628456484304,0.9788675839812672,-1.0610332539660408,1.185920467209016,1.111390419406483,-0.44050447120359437,0.7781747939812337,0.516504049986124
-0.04010107880385948,0.07452514580288744,1.296089511091062,-0.5748774246016546,-0.4644019083555963,1.8413668683493107,2.9988123564570315,0.7788101526637388
1.3253211112683985,-0.9102492620087103,-0.41239701500228765,0.20776031872027467,-1.356383550290114,-1.8559870011707618,-1.287121317147872,0.00728208581392446
-0.93560241523696,2.081490733574966,1.208680380861664,-1.4970985957717224,1.051032677973977,1.4506960168317384,-0.4688341531302086,0.4600490886031226
